# Created by:        SpecsLab Prodigy, Version 4.50.2-r79252 
#
# XY-Serializer Export Settings:
#   Comment Prefix:           #
#   Output meta data:         yes
#   Energy Axis:              Binding Energy
#   Count Rate:               Counts per Second
#   Separate Scan Data:       no
#   Separate Channel Data:    no
#   External Channel Data:    yes
#   Transmission Function:    no
#   ErrorBar:                 no
#   Operation Results:        yes
#   Time Zone Format:         UTC
#
# Group:             Spectrum Group 5
#
# Region:            O1s
# Acquisition Date:  10/25/19 17:37:58 UTC
# Analysis Method:   XPS
# Analyzer:          Phoibos
# Analyzer Lens:     MediumArea:1.5kV
# Analyzer Slit:     5:7x20\B:open
# Scan Mode:         FixedAnalyzerTransmission
# Curves/Scan:       1
# Values/Curve:      491
# Dwell Time:        0.1
# Excitation Energy: 1486.71
# Binding Energy:    570
# Pass Energy:       10
# Bias Voltage:      90
# Detector Voltage:  1900
# Eff. Workfunction: 4.395
# Source:            Focus
# Comment:           
#
# Cycle: 0
# Number of Scans: 12
#
# Cycle: 0, Curve: 0
# Acquisition Date: 10/25/19 17:37:58 UTC
#
# ColumnLabels: energy counts/s
#
570  2193.9618
569.9  2283.4123
569.8  2270.7908
569.7  2250.1011
569.6  2227.6383
569.5  2217.986
569.4  2138.3663
569.3  2133.7149
569.2  2239.8339
569.1  2254.5521
569  2145.4646
568.9  2202.0417
568.8  2269.4161
568.7  2201.7707
568.6  2221.6778
568.5  2181.4752
568.4  2175.6708
568.3  2208.7576
568.2  2162.7227
568.1  2165.0467
568  2149.3105
567.9  2224.9387
567.8  2236.233
567.7  2202.8931
567.6  2219.0854
567.5  2150.3976
567.4  2185.4426
567.3  2218.8922
567.2  2194.0476
567.1  2189.0239
567  2224.721
566.9  2247.6519
566.8  2259.4508
566.7  2300.9342
566.6  2293.1407
566.5  2284.894
566.4  2223.665
566.3  2274.1436
566.2  2303.9756
566.1  2245.5271
566  2304.7398
565.9  2299.673
565.8  2289.6274
565.7  2279.9134
565.6  2303.0867
565.5  2294.3391
565.4  2306.4214
565.3  2308.7061
565.2  2388.9885
565.1  2392.0373
565  2351.5615
564.9  2350.3402
564.8  2379.8708
564.7  2470.4808
564.6  2428.7953
564.5  2420.9536
564.4  2379.462
564.3  2389.7031
564.2  2458.8121
564.1  2429.0898
564  2437.38
563.9  2516.5868
563.8  2548.3184
563.7  2513.4017
563.6  2530.8624
563.5  2456.3866
563.4  2435.6063
563.3  2448.9504
563.2  2554.3407
563.1  2570.9113
563  2486.8292
562.9  2596.7144
562.8  2537.6693
562.7  2589.2856
562.6  2605.9255
562.5  2624.2318
562.4  2589.4803
562.3  2588.1237
562.2  2628.1017
562.1  2615.4847
562  2633.3497
561.9  2656.256
561.8  2598.7558
561.7  2704.6456
561.6  2671.9535
561.5  2557.5641
561.4  2573.1104
561.3  2654.7967
561.2  2718.8764
561.1  2596.5086
561  2657.7846
560.9  2742.2935
560.8  2785.5435
560.7  2689.8558
560.6  2595.1214
560.5  2735.6604
560.4  2743.7533
560.3  2726.291
560.2  2792.9877
560.1  2713.5545
560  2759.8381
559.9  2743.8462
559.8  2711.8972
559.7  2800.908
559.6  2787.7432
559.5  2803.4176
559.4  2872.3858
559.3  2753.0595
559.2  2762.3086
559.1  2720.6524
559  2850.1989
558.9  2810.5794
558.8  2819.8054
558.7  2802.5946
558.6  2786.145
558.5  2794.6298
558.4  2838.9681
558.3  2781.8687
558.2  2802.1239
558.1  2773.734
558  2862.2106
557.9  2857.3191
557.8  2959.142
557.7  2981.4313
557.6  2866.2277
557.5  2899.3573
557.4  2967.4085
557.3  2899.2378
557.2  2903.9755
557.1  2981.3693
557  3039.27
556.9  3049.8436
556.8  2969.6635
556.7  3034.8447
556.6  3056.767
556.5  2984.8795
556.4  2975.4323
556.3  2965.9573
556.2  2965.5049
556.1  3013.3294
556  2932.1859
555.9  2866.7956
555.8  2867.8023
555.7  2863.5703
555.6  2865.4814
555.5  2826.1526
555.4  2833.7736
555.3  2806.7358
555.2  2760.1817
555.1  2773.8407
555  2725.1923
554.9  2714.0065
554.8  2709.9116
554.7  2648.4396
554.6  2793.7117
554.5  2702.8743
554.4  2618.6359
554.3  2563.4758
554.2  2594.4564
554.1  2606.2156
554  2564.1383
553.9  2590.1547
553.8  2506.0717
553.7  2472.8944
553.6  2472.6627
553.5  2435.7996
553.4  2380.2338
553.3  2416.0355
553.2  2366.8206
553.1  2410.3948
553  2353.4321
552.9  2318.9369
552.8  2287.303
552.7  2299.6869
552.6  2253.2271
552.5  2282.0327
552.4  2273.8475
552.3  2198.6219
552.2  2205.5682
552.1  2226.387
552  2253.9918
551.9  2198.8325
551.8  2266.7681
551.7  2163.759
551.6  2205.9499
551.5  2163.9901
551.4  2121.2798
551.3  2182.543
551.2  2165.081
551.1  2119.6546
551  2161.9082
550.9  2034.6494
550.8  2087.4361
550.7  2149.8056
550.6  2096.9954
550.5  2131.0634
550.4  2161.1431
550.3  2123.0136
550.2  2107.7899
550.1  2143.7719
550  2171.6944
549.9  2141.5561
549.8  2103.336
549.7  2047.7737
549.6  2075.2777
549.5  2095.6045
549.4  2105.3237
549.3  2019.8434
549.2  2097.9785
549.1  2045.8642
549  2043.2267
548.9  2059.174
548.8  2000.9461
548.7  2016.6016
548.6  1988.9813
548.5  1998.4581
548.4  2025.0028
548.3  1972.3222
548.2  1983.7847
548.1  1937.0478
548  1930.9381
547.9  1935.1344
547.8  1907.2057
547.7  1849.7732
547.6  1887.241
547.5  1841.8208
547.4  1805.2403
547.3  1873.5767
547.2  1862.775
547.1  1841.8555
547  1795.7157
546.9  1754.5013
546.8  1782.6128
546.7  1809.3003
546.6  1802.4975
546.5  1791.6652
546.4  1824.3055
546.3  1782.3233
546.2  1777.1324
546.1  1790.4073
546  1831.0033
545.9  1810.8518
545.8  1779.5197
545.7  1708.3872
545.6  1649.1877
545.5  1698.6735
545.4  1649.1821
545.3  1644.0197
545.2  1584.9927
545.1  1528.7402
545  1528.9985
544.9  1489.5307
544.8  1494.3441
544.7  1492.4564
544.6  1395.6626
544.5  1424.0229
544.4  1404.9313
544.3  1402.4598
544.2  1360.6683
544.1  1313.9169
544  1231.9711
543.9  1257.8635
543.8  1258.4724
543.7  1235.0986
543.6  1197.5517
543.5  1153.3024
543.4  1167.061
543.3  1196.3766
543.2  1109.4935
543.1  1081.7391
543  1122.2042
542.9  1085.3458
542.8  1096.0261
542.7  1078.5466
542.6  1084.2812
542.5  1046.6893
542.4  1082.3458
542.3  1076.6355
542.2  1088.4495
542.1  1100.205
542  1070.842
541.9  1062.7579
541.8  1031.0306
541.7  1045.1275
541.6  1070.8485
541.5  1013.9272
541.4  972.55419
541.3  1021.5602
541.2  1022.474
541.1  1070.7508
541  1049.2579
540.9  1074.4235
540.8  1059.997
540.7  1053.1543
540.6  1033.6679
540.5  1041.2404
540.4  1047.5779
540.3  1012.7718
540.2  1056.1602
540.1  1038.1705
540  1017.3351
539.9  1000.2932
539.8  1013.6572
539.7  1046.4896
539.6  1033.5256
539.5  1058.2998
539.4  1059.539
539.3  1035.4508
539.2  1052.4845
539.1  1079.1512
539  1053.8056
538.9  1035.742
538.8  1068.4301
538.7  1073.2781
538.6  1055.3449
538.5  1099.4778
538.4  1071.3032
538.3  1060.8126
538.2  1048.9226
538.1  1076.1649
538  1037.755
537.9  1081.5164
537.8  1101.0677
537.7  1102.9591
537.6  1089.8286
537.5  1131.6679
537.4  1107.9427
537.3  1155.486
537.2  1211.0129
537.1  1208.6392
537  1239.008
536.9  1245.8104
536.8  1279.6439
536.7  1300.7934
536.6  1404.9455
536.5  1515.941
536.4  1640.6002
536.3  1748.299
536.2  1930.659
536.1  2201.131
536  2626.8318
535.9  2985.2119
535.8  3453.9495
535.7  4089.8275
535.6  4991.791
535.5  6055.7384
535.4  7262.0358
535.3  8828.7568
535.2  10329.83
535.1  12441.281
535  14584.841
534.9  16725.131
534.8  19093.113
534.7  21486.134
534.6  23461.564
534.5  25154.86
534.4  25914.364
534.3  25998.589
534.2  25854.788
534.1  24732.75
534  22971.007
533.9  20918.058
533.8  18556.335
533.7  15816.577
533.6  13136.008
533.5  10797.339
533.4  8709.8536
533.3  7016.4759
533.2  5637.3579
533.1  4464.1719
533  3692.1823
532.9  3146.6269
532.8  2708.168
532.7  2395.8892
532.6  2091.8098
532.5  1952.4081
532.4  1831.4157
532.3  1644.3068
532.2  1536.2694
532.1  1526.0976
532  1445.0869
531.9  1376.0333
531.8  1307.0355
531.7  1222.041
531.6  1220.1166
531.5  1252.1128
531.4  1171.5258
531.3  1159.9678
531.2  1219.3598
531.1  1118.0271
531  1125.1261
530.9  1123.399
530.8  1096.9298
530.7  1046.9397
530.6  1047.9577
530.5  1041.8117
530.4  1006.0634
530.3  1028.8726
530.2  1019.8514
530.1  1036.6418
530  1044.458
529.9  958.64816
529.8  1016.7729
529.7  1000.5282
529.6  1014.5961
529.5  993.82822
529.4  980.38336
529.3  989.80767
529.2  947.31039
529.1  984.28314
529  961.42352
528.9  954.5848
528.8  1001.0463
528.7  1028.6771
528.6  986.35815
528.5  964.52319
528.4  968.16194
528.3  978.8337
528.2  958.55331
528.1  950.30853
528  924.6314
527.9  967.32384
527.8  972.49276
527.7  968.23533
527.6  963.25481
527.5  972.8078
527.4  946.01718
527.3  916.27685
527.2  925.52498
527.1  898.43901
527  943.853
526.9  957.51891
526.8  938.27029
526.7  969.50658
526.6  941.6169
526.5  901.02518
526.4  918.12121
526.3  974.33517
526.2  933.2298
526.1  930.30423
526  898.47952
525.9  944.58335
525.8  925.17092
525.7  910.52642
525.6  950.47038
525.5  936.4837
525.4  954.07093
525.3  932.70507
525.2  910.81498
525.1  928.40428
525  917.59423
524.9  916.64942
524.8  926.2308
524.7  906.06573
524.6  953.17703
524.5  920.50865
524.4  953.49531
524.3  948.73723
524.2  918.2107
524.1  953.76705
524  902.57132
523.9  955.67015
523.8  968.1109
523.7  963.04212
523.6  928.54831
523.5  934.63823
523.4  942.69986
523.3  932.11876
523.2  969.50709
523.1  944.52682
523  888.92153
522.9  940.15927
522.8  924.96743
522.7  897.49201
522.6  908.05216
522.5  914.20915
522.4  929.03509
522.3  967.52734
522.2  949.04463
522.1  909.86261
522  907.77499
521.9  936.47528
521.8  889.31056
521.7  910.07678
521.6  925.14046
521.5  954.66308
521.4  969.10215
521.3  928.68434
521.2  955.9755
521.1  973.13933
521  966.89234

