# Created by:        SpecsLab Prodigy, Version 4.50.2-r79252 
#
# XY-Serializer Export Settings:
#   Comment Prefix:           #
#   Output meta data:         yes
#   Energy Axis:              Binding Energy
#   Count Rate:               Counts per Second
#   Separate Scan Data:       no
#   Separate Channel Data:    no
#   External Channel Data:    yes
#   Transmission Function:    no
#   ErrorBar:                 no
#   Operation Results:        yes
#   Time Zone Format:         UTC
#
# Group:             Spectrum Group 45
#
# Region:            O1s
# Acquisition Date:  10/25/19 19:14:47 UTC
# Analysis Method:   XPS
# Analyzer:          Phoibos
# Analyzer Lens:     MediumArea:1.5kV
# Analyzer Slit:     5:7x20\B:open
# Scan Mode:         FixedAnalyzerTransmission
# Curves/Scan:       1
# Values/Curve:      491
# Dwell Time:        0.1
# Excitation Energy: 1486.71
# Binding Energy:    570
# Pass Energy:       10
# Bias Voltage:      90
# Detector Voltage:  1900
# Eff. Workfunction: 4.395
# Source:            Focus
# Comment:           
#
# Cycle: 0
# Number of Scans: 12
#
# Cycle: 0, Curve: 0
# Acquisition Date: 10/25/19 19:14:47 UTC
#
# ColumnLabels: energy counts/s
#
570  1256.2119
569.9  1266.5555
569.8  1302.9354
569.7  1244.9435
569.6  1255.8298
569.5  1243.6527
569.4  1265.1091
569.3  1200.1861
569.2  1226.5828
569.1  1280.4886
569  1305.1123
568.9  1223.5537
568.8  1231.1273
568.7  1246.0826
568.6  1244.9616
568.5  1228.8437
568.4  1239.3676
568.3  1209.9434
568.2  1210.8667
568.1  1240.5605
568  1194.0027
567.9  1201.0149
567.8  1248.0629
567.7  1225.701
567.6  1231.1302
567.5  1248.3652
567.4  1222.5023
567.3  1239.4639
567.2  1235.1606
567.1  1225.8059
567  1231.1371
566.9  1187.2545
566.8  1249.2025
566.7  1245.5555
566.6  1200.7285
566.5  1265.0246
566.4  1291.3564
566.3  1301.5375
566.2  1296.0682
566.1  1292.0488
566  1296.6978
565.9  1272.9829
565.8  1272.293
565.7  1246.0385
565.6  1242.9891
565.5  1303.8565
565.4  1321.6118
565.3  1321.7118
565.2  1293.0511
565.1  1320.6626
565  1325.3277
564.9  1341.704
564.8  1348.8859
564.7  1332.4282
564.6  1339.9053
564.5  1396.6437
564.4  1373.6247
564.3  1352.9917
564.2  1386.46
564.1  1317.0658
564  1383.3071
563.9  1334.7706
563.8  1373.1904
563.7  1409.0413
563.6  1360.452
563.5  1326.848
563.4  1385.3725
563.3  1384.4622
563.2  1420.1339
563.1  1433.6089
563  1411.1739
562.9  1451.1829
562.8  1440.7751
562.7  1456.1795
562.6  1448.5076
562.5  1474.2708
562.4  1497.3851
562.3  1475.2241
562.2  1458.5619
562.1  1501.0867
562  1520.3015
561.9  1483.6529
561.8  1446.8805
561.7  1439.7823
561.6  1497.2653
561.5  1539.5312
561.4  1537.7817
561.3  1486.1408
561.2  1542.8217
561.1  1562.4816
561  1533.4819
560.9  1533.9061
560.8  1470.6903
560.7  1521.4088
560.6  1522.289
560.5  1565.2307
560.4  1547.1475
560.3  1524.2452
560.2  1559.2261
560.1  1543.1725
560  1593.4241
559.9  1555.5723
559.8  1595.1845
559.7  1598.587
559.6  1573.1612
559.5  1567.6643
559.4  1572.396
559.3  1559.4751
559.2  1548.7017
559.1  1545.417
559  1539.6659
558.9  1564.1284
558.8  1598.9377
558.7  1622.8071
558.6  1609.9436
558.5  1580.8123
558.4  1618.5251
558.3  1619.5188
558.2  1566.0163
558.1  1626.6907
558  1667.5777
557.9  1664.3363
557.8  1623.1828
557.7  1591.4062
557.6  1649.6792
557.5  1722.2143
557.4  1642.8841
557.3  1682.7591
557.2  1664.3358
557.1  1674.7282
557  1769.943
556.9  1697.8203
556.8  1738.1298
556.7  1792.3571
556.6  1734.8919
556.5  1681.6186
556.4  1662.1447
556.3  1737.3787
556.2  1749.6296
556.1  1767.2126
556  1695.0251
555.9  1672.4984
555.8  1607.1947
555.7  1660.1814
555.6  1623.8325
555.5  1577.4895
555.4  1622.8182
555.3  1603.9875
555.2  1595.7187
555.1  1569.6848
555  1579.1914
554.9  1555.2884
554.8  1555.9613
554.7  1496.1181
554.6  1534.6553
554.5  1565.0198
554.4  1481.5834
554.3  1517.4805
554.2  1505.1957
554.1  1425.9068
554  1458.8686
553.9  1505.7104
553.8  1381.4554
553.7  1402.5026
553.6  1365.8895
553.5  1410.3732
553.4  1426.6516
553.3  1416.1879
553.2  1395.9078
553.1  1388.314
553  1363.6824
552.9  1354.1181
552.8  1344.5988
552.7  1329.1803
552.6  1351.9782
552.5  1298.2219
552.4  1239.2026
552.3  1259.266
552.2  1309.0939
552.1  1258.133
552  1246.2412
551.9  1225.7437
551.8  1282.1286
551.7  1193.656
551.6  1270.4775
551.5  1332.7154
551.4  1232.7053
551.3  1201.3379
551.2  1218.6215
551.1  1214.7906
551  1220.762
550.9  1210.2033
550.8  1218.8569
550.7  1225.3184
550.6  1150.8188
550.5  1159.4911
550.4  1187.4651
550.3  1174.3156
550.2  1158.9819
550.1  1210.0919
550  1140.8769
549.9  1165.2027
549.8  1159.624
549.7  1161.0991
549.6  1171.4943
549.5  1161.2172
549.4  1195.011
549.3  1176.2882
549.2  1131.0748
549.1  1150.441
549  1119.004
548.9  1125.4292
548.8  1135.408
548.7  1148.8019
548.6  1137.8067
548.5  1155.9529
548.4  1106.6022
548.3  1087.4837
548.2  1073.6568
548.1  1098.397
548  1068.2574
547.9  1082.4362
547.8  1063.9864
547.7  1077.2525
547.6  1081.4847
547.5  1069.6035
547.4  1025.0106
547.3  1001.1039
547.2  1047.2703
547.1  1041.5848
547  1013.2584
546.9  1003.2684
546.8  1055.0088
546.7  985.60352
546.6  999.27677
546.5  1025.4779
546.4  959.81091
546.3  936.73228
546.2  995.88722
546.1  994.31663
546  960.52684
545.9  926.02288
545.8  991.46893
545.7  968.10264
545.6  968.07392
545.5  913.0684
545.4  945.92618
545.3  916.94136
545.2  858.83054
545.1  866.23184
545  875.50532
544.9  830.69721
544.8  782.9351
544.7  795.60169
544.6  816.36309
544.5  757.53669
544.4  727.00653
544.3  712.43663
544.2  723.01724
544.1  716.49197
544  697.00731
543.9  647.33515
543.8  667.58166
543.7  653.40473
543.6  646.57506
543.5  655.32876
543.4  601.43677
543.3  619.62599
543.2  605.14451
543.1  579.32186
543  604.30491
542.9  604.29005
542.8  607.85657
542.7  583.81204
542.6  591.4427
542.5  621.48112
542.4  601.27789
542.3  565.16986
542.2  585.74927
542.1  567.11245
542  563.34994
541.9  577.52426
541.8  523.52137
541.7  528.90901
541.6  573.43077
541.5  532.59985
541.4  551.07638
541.3  540.95676
541.2  554.79467
541.1  545.22467
541  545.86426
540.9  580.88177
540.8  551.38058
540.7  526.94657
540.6  531.06225
540.5  563.57891
540.4  575.16952
540.3  567.88531
540.2  569.38812
540.1  538.40267
540  518.26475
539.9  564.86292
539.8  577.4524
539.7  507.96588
539.6  534.0527
539.5  537.95929
539.4  575.18537
539.3  567.06501
539.2  569.49058
539.1  561.4881
539  542.39887
538.9  543.67104
538.8  570.46842
538.7  561.8507
538.6  553.59312
538.5  572.00257
538.4  521.62385
538.3  558.83424
538.2  573.384
538.1  577.35365
538  608.51327
537.9  608.4917
537.8  591.31157
537.7  602.09239
537.6  606.75617
537.5  586.77698
537.4  613.29228
537.3  622.98157
537.2  602.52679
537.1  611.09667
537  637.2731
536.9  680.66093
536.8  687.8474
536.7  693.22722
536.6  729.49408
536.5  753.4084
536.4  778.60653
536.3  880.24632
536.2  952.69014
536.1  1049.2117
536  1220.1678
535.9  1386.248
535.8  1647.989
535.7  1993.999
535.6  2364.5159
535.5  2901.5145
535.4  3674.6536
535.3  4428.2103
535.2  5427.0489
535.1  6609.5498
535  7805.1974
534.9  9146.6893
534.8  10533.748
534.7  11878.56
534.6  13180.07
534.5  14488.879
534.4  15124.22
534.3  15217.376
534.2  15116.933
534.1  14616.519
534  13546.902
533.9  12391.655
533.8  10882.269
533.7  9247.5668
533.6  7723.2964
533.5  6309.4738
533.4  5075.4197
533.3  4024.7215
533.2  3163.9854
533.1  2507.2307
533  2003.3683
532.9  1704.8301
532.8  1465.5959
532.7  1206.5711
532.6  1150.0508
532.5  1053.671
532.4  937.16567
532.3  878.28858
532.2  812.96519
532.1  804.77362
532  756.17132
531.9  707.06286
531.8  721.62566
531.7  651.33331
531.6  647.97655
531.5  632.23159
531.4  610.41182
531.3  611.28038
531.2  591.1513
531.1  589.05119
531  605.96869
530.9  590.03747
530.8  600.45002
530.7  581.43431
530.6  532.68742
530.5  519.29296
530.4  535.72347
530.3  579.78539
530.2  552.7636
530.1  533.2566
530  541.52346
529.9  495.74781
529.8  534.28876
529.7  534.04265
529.6  527.61414
529.5  533.86466
529.4  536.95854
529.3  536.81046
529.2  504.74368
529.1  503.33721
529  507.3741
528.9  499.94193
528.8  500.23389
528.7  506.02371
528.6  488.67468
528.5  506.41018
528.4  477.00338
528.3  522.8714
528.2  514.26975
528.1  501.69212
528  514.05103
527.9  522.71025
527.8  506.28677
527.7  482.37191
527.6  511.61098
527.5  486.41796
527.4  503.22922
527.3  521.73686
527.2  502.77412
527.1  482.7206
527  504.90091
526.9  472.83327
526.8  508.40649
526.7  486.5936
526.6  479.05736
526.5  507.49824
526.4  510.43323
526.3  497.46105
526.2  490.58779
526.1  483.84707
526  502.50018
525.9  500.93189
525.8  500.28121
525.7  483.48644
525.6  453.43798
525.5  467.85041
525.4  480.01273
525.3  474.90195
525.2  526.2361
525.1  504.16428
525  490.68211
524.9  486.54837
524.8  511.68336
524.7  480.06265
524.6  485.64153
524.5  485.56053
524.4  508.02718
524.3  520.22304
524.2  477.72591
524.1  460.68425
524  485.24721
523.9  451.56257
523.8  470.88287
523.7  491.35881
523.6  497.31187
523.5  512.24094
523.4  489.16864
523.3  454.3062
523.2  491.72163
523.1  492.01497
523  493.35014
522.9  502.02857
522.8  481.81522
522.7  505.51453
522.6  498.18888
522.5  496.56361
522.4  488.99691
522.3  486.5704
522.2  495.40753
522.1  465.22463
522  510.25522
521.9  514.78648
521.8  511.8425
521.7  490.78428
521.6  481.22114
521.5  488.74178
521.4  517.90512
521.3  490.4251
521.2  512.63738
521.1  513.45144
521  498.30279

