# Created by:        SpecsLab Prodigy, Version 4.50.2-r79252 
#
# XY-Serializer Export Settings:
#   Comment Prefix:           #
#   Output meta data:         yes
#   Energy Axis:              Binding Energy
#   Count Rate:               Counts per Second
#   Separate Scan Data:       no
#   Separate Channel Data:    no
#   External Channel Data:    yes
#   Transmission Function:    no
#   ErrorBar:                 no
#   Operation Results:        yes
#   Time Zone Format:         UTC
#
# Group:             Spectrum Group 0
#
# Region:            O1s
# Acquisition Date:  10/25/19 17:06:56 UTC
# Analysis Method:   XPS
# Analyzer:          Phoibos
# Analyzer Lens:     MediumArea:1.5kV
# Analyzer Slit:     5:7x20\B:open
# Scan Mode:         FixedAnalyzerTransmission
# Curves/Scan:       1
# Values/Curve:      491
# Dwell Time:        0.1
# Excitation Energy: 1486.71
# Binding Energy:    570
# Pass Energy:       10
# Bias Voltage:      90
# Detector Voltage:  1900
# Eff. Workfunction: 4.395
# Source:            Focus
# Comment:           
#
# Cycle: 0
# Number of Scans: 12
#
# Cycle: 0, Curve: 0
# Acquisition Date: 10/25/19 17:06:56 UTC
#
# ColumnLabels: energy counts/s
#
570  2373.7829
569.9  2409.7796
569.8  2328.5554
569.7  2350.9546
569.6  2344.6005
569.5  2334.8909
569.4  2310.816
569.3  2344.2745
569.2  2307.4914
569.1  2259.8045
569  2267.3173
568.9  2270.4531
568.8  2256.4656
568.7  2284.1833
568.6  2268.1957
568.5  2296.1842
568.4  2293.2061
568.3  2289.5902
568.2  2249.1519
568.1  2250.9447
568  2272.2047
567.9  2326.2014
567.8  2235.2499
567.7  2247.8721
567.6  2232.2511
567.5  2190.1812
567.4  2213.2334
567.3  2247.8256
567.2  2246.8008
567.1  2322.31
567  2368.671
566.9  2340.6227
566.8  2344.9858
566.7  2373.559
566.6  2413.9701
566.5  2368.2034
566.4  2483.3432
566.3  2389.3175
566.2  2351.783
566.1  2393.6112
566  2404.4946
565.9  2403.6636
565.8  2386.5936
565.7  2365.2412
565.6  2345.7337
565.5  2380.542
565.4  2365.7984
565.3  2372.9723
565.2  2456.4499
565.1  2537.065
565  2435.051
564.9  2363.0158
564.8  2407.5464
564.7  2429.8323
564.6  2542.8385
564.5  2512.1286
564.4  2517.3197
564.3  2482.4159
564.2  2500.0655
564.1  2560.2839
564  2510.5871
563.9  2552.8843
563.8  2533.349
563.7  2588.0743
563.6  2604.5087
563.5  2577.561
563.4  2670.7214
563.3  2729.4046
563.2  2601.7235
563.1  2626.224
563  2675.3967
562.9  2647.0723
562.8  2740.4679
562.7  2730.628
562.6  2737.5078
562.5  2703.7452
562.4  2659.3646
562.3  2746.1135
562.2  2695.0812
562.1  2773.6992
562  2674.6488
561.9  2755.0369
561.8  2762.3712
561.7  2731.4893
561.6  2811.1442
561.5  2821.5159
561.4  2816.9518
561.3  2845.8726
561.2  2860.919
561.1  2890.0652
561  2866.7023
560.9  2913.4104
560.8  2813.6261
560.7  2817.3479
560.6  2860.7251
560.5  2822.4612
560.4  2748.272
560.3  2768.6922
560.2  2792.9434
560.1  2989.2057
560  2931.2684
559.9  2770.5259
559.8  2863.7863
559.7  2896.1621
559.6  2866.5435
559.5  2898.277
559.4  2898.3048
559.3  2921.574
559.2  2849.7036
559.1  2930.9533
559  2865.651
558.9  2922.3457
558.8  2911.524
558.7  2882.818
558.6  2952.6083
558.5  2865.8048
558.4  2892.7506
558.3  2922.6302
558.2  2945.0082
558.1  3003.9817
558  3008.1757
557.9  2974.1742
557.8  3100.9387
557.7  3046.8893
557.6  3033.2104
557.5  3099.834
557.4  3079.0039
557.3  3063.0376
557.2  3060.0346
557.1  3060.9122
557  3159.0342
556.9  3147.6604
556.8  3145.1359
556.7  3151.0962
556.6  3103.9243
556.5  3214.9801
556.4  3203.7489
556.3  3191.2793
556.2  3173.0127
556.1  3120.7849
556  3094.0031
555.9  3149.7809
555.8  3162.894
555.7  3095.3688
555.6  3004.3058
555.5  2983.3533
555.4  2974.6753
555.3  2939.7509
555.2  2889.2615
555.1  2935.9739
555  2831.2372
554.9  2837.5872
554.8  2777.6582
554.7  2784.4964
554.6  2799.3234
554.5  2702.1507
554.4  2772.9576
554.3  2730.9723
554.2  2717.8685
554.1  2724.1182
554  2711.691
553.9  2660.4882
553.8  2667.4566
553.7  2594.7232
553.6  2597.5344
553.5  2627.8288
553.4  2582.3892
553.3  2548.0513
553.2  2581.9297
553.1  2568.197
553  2465.739
552.9  2468.0159
552.8  2413.4262
552.7  2406.6135
552.6  2402.8645
552.5  2424.4404
552.4  2370.7887
552.3  2412.5069
552.2  2328.1181
552.1  2331.7126
552  2392.0864
551.9  2333.7292
551.8  2295.9131
551.7  2275.1386
551.6  2275.8218
551.5  2302.7834
551.4  2216.9392
551.3  2283.9418
551.2  2298.5384
551.1  2243.3811
551  2198.8911
550.9  2199.5136
550.8  2223.1335
550.7  2190.937
550.6  2217.1854
550.5  2220.0369
550.4  2309.2914
550.3  2282.0671
550.2  2257.1399
550.1  2225.0192
550  2191.094
549.9  2210.8498
549.8  2234.3535
549.7  2251.0282
549.6  2212.3977
549.5  2227.7757
549.4  2137.581
549.3  2104.4894
549.2  2175.8276
549.1  2256.3645
549  2158.302
548.9  2144.6522
548.8  2080.1904
548.7  2127.3407
548.6  2120.8904
548.5  2109.6483
548.4  2115.4065
548.3  2162.7642
548.2  2086.7732
548.1  2007.0351
548  2010.7254
547.9  1991.3392
547.8  1959.5145
547.7  1965.6678
547.6  2021.5986
547.5  1969.9847
547.4  1919.076
547.3  1988.0355
547.2  1971.5924
547.1  1931.0354
547  1839.1739
546.9  1833.3194
546.8  1878.9826
546.7  1907.0307
546.6  1904.5078
546.5  1861.602
546.4  1860.3703
546.3  1900.0449
546.2  1845.6038
546.1  1889.5143
546  1801.9353
545.9  1795.9209
545.8  1755.4019
545.7  1809.9562
545.6  1779.5812
545.5  1786.0898
545.4  1695.2379
545.3  1644.8699
545.2  1705.0174
545.1  1677.021
545  1654.4006
544.9  1584.2511
544.8  1488.172
544.7  1491.414
544.6  1499.2153
544.5  1471.8837
544.4  1406.0424
544.3  1419.4405
544.2  1425.5575
544.1  1407.2668
544  1360.6012
543.9  1289.0383
543.8  1295.4996
543.7  1296.8534
543.6  1248.3532
543.5  1260.9062
543.4  1251.1722
543.3  1196.3313
543.2  1188.6415
543.1  1206.2817
543  1149.819
542.9  1148.3379
542.8  1151.7654
542.7  1138.6567
542.6  1156.8713
542.5  1119.4728
542.4  1141.1811
542.3  1135.4681
542.2  1135.5712
542.1  1152.6869
542  1113.2953
541.9  1097.4044
541.8  1113.6202
541.7  1166.4111
541.6  1085.0845
541.5  1116.5657
541.4  1120.8236
541.3  1111.6045
541.2  1065.5272
541.1  1090.2754
541  1116.6128
540.9  1056.8078
540.8  1105.9598
540.7  1081.6472
540.6  1075.686
540.5  1088.6934
540.4  1126.8068
540.3  1126.2588
540.2  1140.5841
540.1  1112.2286
540  1087.2077
539.9  1073.1008
539.8  1086.5138
539.7  1163.6294
539.6  1082.5477
539.5  1076.3923
539.4  1093.2253
539.3  1107.5018
539.2  1073.4809
539.1  1135.2907
539  1148.3458
538.9  1107.6681
538.8  1109.175
538.7  1159.8751
538.6  1129.9891
538.5  1078.2513
538.4  1082.3855
538.3  1113.7626
538.2  1178.5024
538.1  1170.3878
538  1168.298
537.9  1164.7296
537.8  1134.303
537.7  1122.0645
537.6  1159.3775
537.5  1198.8206
537.4  1185.4087
537.3  1196.7668
537.2  1249.9826
537.1  1228.3051
537  1267.372
536.9  1258.911
536.8  1317.9046
536.7  1335.2211
536.6  1366.267
536.5  1523.19
536.4  1605.6041
536.3  1770.0592
536.2  1896.628
536.1  2162.1709
536  2483.3899
535.9  2901.3638
535.8  3427.406
535.7  4080.8848
535.6  4881.0479
535.5  5859.4593
535.4  7305.2251
535.3  8797.1658
535.2  10558.223
535.1  12589.764
535  15106.834
534.9  17458.46
534.8  19906.969
534.7  22328.279
534.6  24638.344
534.5  26085.344
534.4  27569.588
534.3  27979.969
534.2  27376.089
534.1  26198.069
534  24522.096
533.9  22070.003
533.8  19276.676
533.7  16582.778
533.6  13920.986
533.5  11359.538
533.4  9188.9125
533.3  7304.1159
533.2  5882.3561
533.1  4807.8213
533  3899.179
532.9  3287.7483
532.8  2888.2347
532.7  2513.531
532.6  2288.5012
532.5  2054.8031
532.4  1862.1859
532.3  1771.8706
532.2  1660.1779
532.1  1585.5868
532  1542.7124
531.9  1422.1611
531.8  1412.501
531.7  1347.196
531.6  1318.8719
531.5  1305.8684
531.4  1275.1005
531.3  1267.6329
531.2  1205.6611
531.1  1161.4397
531  1168.9585
530.9  1131.7228
530.8  1150.3297
530.7  1130.7516
530.6  1053.309
530.5  1039.8486
530.4  1081.5602
530.3  1103.004
530.2  1094.5857
530.1  1105.5354
530  1083.9597
529.9  1070.3216
529.8  1056.5685
529.7  1051.7703
529.6  1057.1571
529.5  1085.9942
529.4  1044.0817
529.3  998.33364
529.2  1011.8027
529.1  982.64969
529  990.05474
528.9  1043.1725
528.8  1002.5737
528.7  1016.192
528.6  1002.233
528.5  1022.57
528.4  1039.4265
528.3  1035.4131
528.2  1009.1657
528.1  1014.805
528  1035.2674
527.9  1019.4413
527.8  1021.8033
527.7  1019.404
527.6  968.63053
527.5  1002.0463
527.4  998.03893
527.3  982.7353
527.2  956.77454
527.1  1043.2374
527  1008.1993
526.9  985.36336
526.8  942.30934
526.7  980.71478
526.6  937.34178
526.5  994.68008
526.4  1001.2535
526.3  1007.6619
526.2  999.14234
526.1  1025.2788
526  945.13316
525.9  963.7367
525.8  959.26272
525.7  909.4755
525.6  963.63146
525.5  968.76869
525.4  966.68186
525.3  1015.4638
525.2  999.98701
525.1  997.18224
525  1008.6619
524.9  992.34219
524.8  976.37014
524.7  963.98885
524.6  983.17651
524.5  961.30129
524.4  965.09868
524.3  981.59569
524.2  972.71637
524.1  989.082
524  968.41098
523.9  966.9796
523.8  959.83759
523.7  1011.0871
523.6  1009.0923
523.5  966.20864
523.4  988.20168
523.3  1004.836
523.2  962.65798
523.1  975.71687
523  1000.2126
522.9  987.68457
522.8  987.88122
522.7  977.07409
522.6  981.6816
522.5  946.62271
522.4  982.65246
522.3  964.33573
522.2  955.26956
522.1  990.05418
522  996.07414
521.9  982.25942
521.8  953.64843
521.7  970.66442
521.6  964.02969
521.5  1010.7402
521.4  966.6134
521.3  958.21217
521.2  952.29725
521.1  966.49806
521  973.37716

