# Created by:        SpecsLab Prodigy, Version 4.50.2-r79252 
#
# XY-Serializer Export Settings:
#   Comment Prefix:           #
#   Output meta data:         yes
#   Energy Axis:              Binding Energy
#   Count Rate:               Counts per Second
#   Separate Scan Data:       no
#   Separate Channel Data:    no
#   External Channel Data:    yes
#   Transmission Function:    no
#   ErrorBar:                 no
#   Operation Results:        yes
#   Time Zone Format:         UTC
#
# Group:             Spectrum Group 35
#
# Region:            O1s
# Acquisition Date:  10/25/19 18:48:29 UTC
# Analysis Method:   XPS
# Analyzer:          Phoibos
# Analyzer Lens:     MediumArea:1.5kV
# Analyzer Slit:     5:7x20\B:open
# Scan Mode:         FixedAnalyzerTransmission
# Curves/Scan:       1
# Values/Curve:      491
# Dwell Time:        0.1
# Excitation Energy: 1486.71
# Binding Energy:    570
# Pass Energy:       10
# Bias Voltage:      90
# Detector Voltage:  1900
# Eff. Workfunction: 4.395
# Source:            Focus
# Comment:           
#
# Cycle: 0
# Number of Scans: 12
#
# Cycle: 0, Curve: 0
# Acquisition Date: 10/25/19 18:48:29 UTC
#
# ColumnLabels: energy counts/s
#
570  1463.3371
569.9  1409.9825
569.8  1402.9574
569.7  1441.1096
569.6  1482.1095
569.5  1457.2175
569.4  1470.6079
569.3  1420.8673
569.2  1439.1431
569.1  1441.1259
569  1405.7615
568.9  1396.4663
568.8  1436.4144
568.7  1394.2281
568.6  1392.3227
568.5  1330.3474
568.4  1417.696
568.3  1395.3195
568.2  1408.7159
568.1  1428.8703
568  1445.9176
567.9  1420.747
567.8  1414.118
567.7  1354.1076
567.6  1360.4206
567.5  1415.0635
567.4  1482.5977
567.3  1428.6671
567.2  1412.0733
567.1  1438.8257
567  1477.4278
566.9  1464.3467
566.8  1455.7825
566.7  1441.7806
566.6  1476.7257
566.5  1491.0057
566.4  1454.8046
566.3  1493.7916
566.2  1484.4505
566.1  1557.1899
566  1527.3118
565.9  1563.9757
565.8  1494.0337
565.7  1461.1957
565.6  1509.3273
565.5  1474.3884
565.4  1512.7758
565.3  1492.6932
565.2  1594.9623
565.1  1567.2364
565  1581.6215
564.9  1590.8781
564.8  1589.7654
564.7  1541.6808
564.6  1549.2826
564.5  1533.3656
564.4  1542.3058
564.3  1531.3649
564.2  1591.7291
564.1  1598.0282
564  1592.0612
563.9  1592.6095
563.8  1591.7762
563.7  1625.8294
563.6  1592.2168
563.5  1661.0575
563.4  1603.3037
563.3  1661.9982
563.2  1676.1161
563.1  1724.3845
563  1676.8547
562.9  1670.0428
562.8  1701.5603
562.7  1664.2044
562.6  1644.2108
562.5  1724.3701
562.4  1718.1177
562.3  1705.8257
562.2  1700.4354
562.1  1760.3871
562  1708.6643
561.9  1753.9164
561.8  1767.3339
561.7  1772.9574
561.6  1740.5991
561.5  1812.2255
561.4  1763.4127
561.3  1751.1676
561.2  1787.1581
561.1  1769.6718
561  1768.903
560.9  1807.6226
560.8  1807.0382
560.7  1809.4833
560.6  1802.6442
560.5  1812.7516
560.4  1890.593
560.3  1810.7086
560.2  1760.043
560.1  1824.5842
560  1798.4942
559.9  1863.865
559.8  1850.316
559.7  1897.2628
559.6  1878.6879
559.5  1813.4825
559.4  1854.9316
559.3  1761.1603
559.2  1834.9982
559.1  1840.6222
559  1826.6477
558.9  1848.5459
558.8  1816.31
558.7  1801.866
558.6  1798.5209
558.5  1806.1961
558.4  1845.8621
558.3  1830.998
558.2  1875.9066
558.1  1853.9401
558  1896.2698
557.9  1915.975
557.8  1922.4553
557.7  1898.6542
557.6  1865.7455
557.5  1913.7431
557.4  1935.1074
557.3  1943.5969
557.2  1947.815
557.1  1909.7401
557  1979.7755
556.9  1980.1689
556.8  1961.1896
556.7  2007.1127
556.6  1961.0649
556.5  2109.7021
556.4  2045.7025
556.3  2010.6994
556.2  1999.6809
556.1  2028.1002
556  1995.4203
555.9  1933.6219
555.8  1954.2892
555.7  1941.3065
555.6  1908.8408
555.5  1901.4783
555.4  1884.3517
555.3  1823.8791
555.2  1834.8729
555.1  1876.4775
555  1778.4111
554.9  1776.1715
554.8  1809.6536
554.7  1729.9075
554.6  1809.8916
554.5  1744.259
554.4  1707.2335
554.3  1733.8865
554.2  1756.6305
554.1  1767.1584
554  1737.6819
553.9  1732.9778
553.8  1681.2532
553.7  1628.6703
553.6  1639.1822
553.5  1595.776
553.4  1645.5932
553.3  1594.5429
553.2  1587.3044
553.1  1583.5458
553  1581.9156
552.9  1564.8536
552.8  1528.4472
552.7  1547.8607
552.6  1546.7078
552.5  1454.7346
552.4  1515.5067
552.3  1526.984
552.2  1509.067
552.1  1464.7506
552  1460.7018
551.9  1400.5384
551.8  1421.0226
551.7  1390.6163
551.6  1453.5912
551.5  1478.0171
551.4  1391.2542
551.3  1401.6193
551.2  1434.7299
551.1  1426.6499
551  1456.5768
550.9  1424.2976
550.8  1427.9146
550.7  1421.0746
550.6  1426.0264
550.5  1388.7685
550.4  1423.3582
550.3  1392.098
550.2  1342.911
550.1  1380.7062
550  1360.1379
549.9  1339.8497
549.8  1375.6866
549.7  1346.8279
549.6  1328.4227
549.5  1301.9299
549.4  1347.7392
549.3  1359.2226
549.2  1369.7503
549.1  1331.5203
549  1379.2602
548.9  1368.0666
548.8  1336.831
548.7  1344.7547
548.6  1317.9673
548.5  1316.239
548.4  1260.1977
548.3  1273.8934
548.2  1265.223
548.1  1272.4744
548  1277.6535
547.9  1297.188
547.8  1233.4764
547.7  1261.4001
547.6  1259.1674
547.5  1251.5411
547.4  1191.7867
547.3  1171.5283
547.2  1250.1088
547.1  1223.4389
547  1232.5364
546.9  1232.7954
546.8  1169.5622
546.7  1183.6138
546.6  1248.412
546.5  1193.5694
546.4  1131.038
546.3  1170.1326
546.2  1157.3971
546.1  1151.8533
546  1122.8925
545.9  1137.563
545.8  1143.3726
545.7  1093.7991
545.6  1076.9675
545.5  1145.0839
545.4  1094.9354
545.3  1067.6451
545.2  1063.5302
545.1  1006.3852
545  1021.2049
544.9  1014.1495
544.8  992.58926
544.7  966.24476
544.6  994.97337
544.5  969.27791
544.4  930.57281
544.3  909.72569
544.2  890.57751
544.1  828.12436
544  864.5165
543.9  819.4707
543.8  819.47647
543.7  774.79328
543.6  786.88951
543.5  771.58637
543.4  750.2706
543.3  749.56647
543.2  739.46864
543.1  752.00555
543  743.45673
542.9  725.54855
542.8  708.52911
542.7  749.52131
542.6  672.15833
542.5  681.03913
542.4  687.34359
542.3  706.29573
542.2  695.41424
542.1  665.46981
542  685.99397
541.9  672.42599
541.8  718.61654
541.7  706.80124
541.6  688.36579
541.5  675.23893
541.4  666.41294
541.3  687.15524
541.2  665.68473
541.1  721.4223
541  704.88682
540.9  703.64478
540.8  663.71231
540.7  688.08625
540.6  696.832
540.5  648.92845
540.4  675.117
540.3  708.9025
540.2  714.20893
540.1  709.25123
540  652.64379
539.9  662.90886
539.8  666.74395
539.7  717.17936
539.6  683.04715
539.5  647.89842
539.4  671.24891
539.3  696.15332
539.2  672.96937
539.1  668.61074
539  704.67557
538.9  718.08986
538.8  657.96457
538.7  656.43034
538.6  674.20533
538.5  709.11741
538.4  657.37224
538.3  675.53572
538.2  668.47696
538.1  659.10559
538  654.41027
537.9  689.8716
537.8  673.04282
537.7  707.408
537.6  699.03595
537.5  713.86545
537.4  716.1418
537.3  746.77958
537.2  794.29177
537.1  798.34124
537  772.9614
536.9  796.23329
536.8  794.68669
536.7  798.23321
536.6  851.40232
536.5  859.73676
536.4  904.26224
536.3  965.63634
536.2  1068.1679
536.1  1171.8514
536  1267.457
535.9  1506.5818
535.8  1701.2247
535.7  1981.2621
535.6  2382.6944
535.5  2869.1693
535.4  3494.1658
535.3  4448.2191
535.2  5492.4669
535.1  6627.5266
535  8030.6613
534.9  9571.4649
534.8  11241.741
534.7  12881.526
534.6  14590.912
534.5  16148.958
534.4  17126.081
534.3  17843.836
534.2  17880.266
534.1  17344.868
534  16648.317
533.9  15302.158
533.8  13831.99
533.7  11879.718
533.6  9988.5339
533.5  8413.1148
533.4  6769.3196
533.3  5337.8461
533.2  4324.7742
533.1  3419.3788
533  2700.1718
532.9  2329.1109
532.8  1985.7861
532.7  1673.9936
532.6  1473.7703
532.5  1338.6389
532.4  1229.4765
532.3  1142.8924
532.2  1043.7077
532.1  945.74784
532  909.28523
531.9  965.31405
531.8  917.85801
531.7  874.30715
531.6  845.85552
531.5  771.1858
531.4  736.4912
531.3  721.66645
531.2  753.66554
531.1  736.40256
531  730.4485
530.9  747.13325
530.8  737.55959
530.7  657.76477
530.6  710.52307
530.5  717.89923
530.4  683.32706
530.3  689.54182
530.2  725.64561
530.1  668.22013
530  672.57777
529.9  685.41046
529.8  675.78937
529.7  684.71142
529.6  637.81457
529.5  636.76562
529.4  610.31424
529.3  611.40488
529.2  626.98688
529.1  641.64169
529  700.33516
528.9  632.81876
528.8  611.6176
528.7  662.68402
528.6  629.83223
528.5  629.62367
528.4  610.63327
528.3  639.86789
528.2  590.35534
528.1  631.04923
528  612.08804
527.9  605.17009
527.8  617.18493
527.7  599.84289
527.6  596.91265
527.5  627.47783
527.4  615.66328
527.3  631.2173
527.2  609.06496
527.1  630.85117
527  594.9221
526.9  584.0997
526.8  596.96401
526.7  604.4186
526.6  581.22586
526.5  607.87537
526.4  599.33933
526.3  604.50882
526.2  632.12745
526.1  578.78588
526  578.16731
525.9  635.55309
525.8  639.62447
525.7  594.68902
525.6  597.8122
525.5  603.03392
525.4  625.16027
525.3  651.67478
525.2  603.51265
525.1  590.89658
525  594.57677
524.9  603.45411
524.8  613.02696
524.7  601.25792
524.6  609.20245
524.5  587.38861
524.4  623.05229
524.3  611.96841
524.2  600.97098
524.1  621.60945
524  614.36527
523.9  601.6182
523.8  607.00163
523.7  664.98878
523.6  605.25411
523.5  563.09648
523.4  576.50207
523.3  579.19433
523.2  597.04487
523.1  617.45835
523  613.66067
522.9  575.96999
522.8  578.39577
522.7  584.21972
522.6  648.89452
522.5  610.50338
522.4  609.81212
522.3  598.29928
522.2  591.49751
522.1  600.86474
522  620.76842
521.9  606.90183
521.8  623.29102
521.7  615.66699
521.6  559.30235
521.5  595.905
521.4  611.97464
521.3  624.15645
521.2  580.56143
521.1  652.4924
521  620.08973

