# Created by:        SpecsLab Prodigy, Version 4.50.2-r79252 
#
# XY-Serializer Export Settings:
#   Comment Prefix:           #
#   Output meta data:         yes
#   Energy Axis:              Binding Energy
#   Count Rate:               Counts per Second
#   Separate Scan Data:       no
#   Separate Channel Data:    no
#   External Channel Data:    yes
#   Transmission Function:    no
#   ErrorBar:                 no
#   Operation Results:        yes
#   Time Zone Format:         UTC
#
# Group:             Spectrum Group 15
#
# Region:            O1s
# Acquisition Date:  10/25/19 17:57:46 UTC
# Analysis Method:   XPS
# Analyzer:          Phoibos
# Analyzer Lens:     MediumArea:1.5kV
# Analyzer Slit:     5:7x20\B:open
# Scan Mode:         FixedAnalyzerTransmission
# Curves/Scan:       1
# Values/Curve:      491
# Dwell Time:        0.1
# Excitation Energy: 1486.71
# Binding Energy:    570
# Pass Energy:       10
# Bias Voltage:      90
# Detector Voltage:  1900
# Eff. Workfunction: 4.395
# Source:            Focus
# Comment:           
#
# Cycle: 0
# Number of Scans: 12
#
# Cycle: 0, Curve: 0
# Acquisition Date: 10/25/19 17:57:46 UTC
#
# ColumnLabels: energy counts/s
#
570  1924.7913
569.9  1935.8714
569.8  1954.4096
569.7  1964.0922
569.6  1931.0972
569.5  1871.0069
569.4  1903.2336
569.3  1943.2759
569.2  1871.6937
569.1  1918.4589
569  1880.3084
568.9  1933.334
568.8  1916.6605
568.7  1859.7276
568.6  1861.8306
568.5  1899.4474
568.4  1862.5286
568.3  1891.7899
568.2  1765.0875
568.1  1879.3786
568  1911.9766
567.9  1898.4067
567.8  1900.5035
567.7  1916.5164
567.6  1829.7707
567.5  1826.0561
567.4  1898.391
567.3  1887.9657
567.2  1918.8563
567.1  1899.327
567  1894.3924
566.9  1908.2771
566.8  1906.8305
566.7  1966.5263
566.6  1929.7693
566.5  1860.0576
566.4  1853.7288
566.3  1948.3998
566.2  1925.4535
566.1  1956.4612
566  2026.7575
565.9  1977.8943
565.8  2013.2674
565.7  1978.0502
565.6  2043.2731
565.5  2039.5474
565.4  2056.5591
565.3  2148.635
565.2  1996.2354
565.1  2061.0135
565  2067.5189
564.9  1998.1254
564.8  2048.3216
564.7  2091.3871
564.6  2021.5765
564.5  2132.592
564.4  2044.1092
564.3  2025.9155
564.2  2094.7597
564.1  2114.1038
564  2159.7279
563.9  2133.5464
563.8  2098.7408
563.7  2198.3917
563.6  2132.0829
563.5  2195.2981
563.4  2171.5707
563.3  2286.1792
563.2  2171.3339
563.1  2183.5182
563  2219.6918
562.9  2180.0147
562.8  2193.976
562.7  2155.4466
562.6  2220.6385
562.5  2282.7676
562.4  2193.6836
562.3  2294.5882
562.2  2284.0231
562.1  2321.6103
562  2316.4721
561.9  2285.5249
561.8  2256.0352
561.7  2221.6973
561.6  2267.7895
561.5  2346.2449
561.4  2332.0877
561.3  2353.7945
561.2  2354.7449
561.1  2284.052
561  2347.7205
560.9  2319.6131
560.8  2413.9025
560.7  2329.5858
560.6  2370.3145
560.5  2332.7494
560.4  2370.1875
560.3  2430.2167
560.2  2393.17
560.1  2391.7241
560  2397.7829
559.9  2383.9123
559.8  2390.5444
559.7  2437.554
559.6  2406.8664
559.5  2419.7607
559.4  2303.2693
559.3  2363.7771
559.2  2357.1329
559.1  2364.2763
559  2437.0674
558.9  2447.4754
558.8  2393.8468
558.7  2398.7906
558.6  2466.868
558.5  2460.7775
558.4  2410.7561
558.3  2423.8323
558.2  2493.0813
558.1  2484.5651
558  2488.6006
557.9  2510.9642
557.8  2386.9636
557.7  2481.4425
557.6  2562.5029
557.5  2560.9437
557.4  2555.2991
557.3  2483.1251
557.2  2579.0917
557.1  2582.482
557  2614.889
556.9  2626.9815
556.8  2679.5631
556.7  2632.314
556.6  2678.5239
556.5  2719.7957
556.4  2657.6458
556.3  2614.6254
556.2  2604.5168
556.1  2621.9116
556  2535.0658
555.9  2562.5909
555.8  2569.0254
555.7  2511.9395
555.6  2514.7835
555.5  2485.2275
555.4  2450.1656
555.3  2396.0383
555.2  2358.4142
555.1  2378.6533
555  2390.1481
554.9  2286.0151
554.8  2282.0827
554.7  2315.4385
554.6  2264.9812
554.5  2274.614
554.4  2257.4447
554.3  2273.9332
554.2  2256.0312
554.1  2255.5564
554  2175.7037
553.9  2193.7408
553.8  2188.536
553.7  2186.1944
553.6  2208.1064
553.5  2105.2341
553.4  2143.3794
553.3  2129.9449
553.2  2108.3506
553.1  2042.8607
553  2028.7967
552.9  2067.6845
552.8  2008.0555
552.7  1966.9199
552.6  1932.4503
552.5  2003.3978
552.4  1950.6082
552.3  1920.8692
552.2  1955.333
552.1  1913.3152
552  1876.3073
551.9  1887.4737
551.8  1921.4787
551.7  1894.7274
551.6  1874.4823
551.5  1924.0367
551.4  1880.9631
551.3  1906.7815
551.2  1838.3394
551.1  1857.2177
551  1847.5357
550.9  1877.4717
550.8  1858.0523
550.7  1801.1351
550.6  1789.2372
550.5  1836.7238
550.4  1823.4777
550.3  1848.5431
550.2  1874.171
550.1  1889.3849
550  1877.2635
549.9  1827.9728
549.8  1842.6942
549.7  1811.5518
549.6  1834.2115
549.5  1763.4156
549.4  1786.3758
549.3  1837.5984
549.2  1821.7823
549.1  1764.9544
549  1740.3344
548.9  1790.5652
548.8  1823.499
548.7  1741.9328
548.6  1780.7406
548.5  1726.4057
548.4  1660.135
548.3  1709.9802
548.2  1686.8551
548.1  1717.0478
548  1668.1817
547.9  1683.7899
547.8  1677.0553
547.7  1656.4461
547.6  1618.7006
547.5  1612.6293
547.4  1585.8704
547.3  1629.2189
547.2  1610.7157
547.1  1577.4521
547  1630.5172
546.9  1613.8011
546.8  1535.951
546.7  1556.7119
546.6  1599.4548
546.5  1564.9824
546.4  1586.0111
546.3  1550.464
546.2  1538.8413
546.1  1532.8303
546  1541.9224
545.9  1515.8028
545.8  1492.0217
545.7  1467.0025
545.6  1459.6703
545.5  1426.0368
545.4  1490.7108
545.3  1435.6074
545.2  1386.1518
545.1  1330.5088
545  1307.9073
544.9  1282.0498
544.8  1254.719
544.7  1282.4848
544.6  1251.6687
544.5  1257.0125
544.4  1226.9301
544.3  1231.9817
544.2  1136.5829
544.1  1146.7359
544  1081.5488
543.9  1058.3258
543.8  1086.6299
543.7  1035.4699
543.6  1040.3256
543.5  1012.5727
543.4  966.68359
543.3  986.85319
543.2  999.86918
543.1  928.71018
543  920.18834
542.9  959.05922
542.8  972.13574
542.7  955.32796
542.6  989.54502
542.5  963.35751
542.4  921.69939
542.3  921.31668
542.2  981.96197
542.1  949.52583
542  904.6162
541.9  877.27091
541.8  898.96108
541.7  936.3739
541.6  947.04484
541.5  949.05646
541.4  947.39182
541.3  902.71503
541.2  913.49416
541.1  937.8408
541  930.05652
540.9  908.28496
540.8  930.96892
540.7  894.97611
540.6  902.61355
540.5  917.62071
540.4  909.01105
540.3  919.25283
540.2  916.45596
540.1  939.1232
540  919.84159
539.9  924.04143
539.8  934.70076
539.7  900.80207
539.6  890.6055
539.5  923.50262
539.4  936.14525
539.3  934.09269
539.2  907.03081
539.1  903.13696
539  905.88556
538.9  896.61792
538.8  894.0906
538.7  878.08152
538.6  864.76405
538.5  925.0316
538.4  964.64185
538.3  971.49347
538.2  971.96354
538.1  936.14985
538  957.11254
537.9  961.363
537.8  957.82625
537.7  956.14738
537.6  968.87475
537.5  955.91619
537.4  997.41754
537.3  1014.9541
537.2  985.9854
537.1  1039.4816
537  1088.7907
536.9  1056.7659
536.8  1101.9028
536.7  1121.8382
536.6  1193.8661
536.5  1266.6494
536.4  1351.8359
536.3  1476.1878
536.2  1635.2879
536.1  1833.8862
536  2094.447
535.9  2348.3283
535.8  2717.1302
535.7  3140.1894
535.6  3888.7639
535.5  4696.5332
535.4  5548.4364
535.3  6666.7645
535.2  8193.3047
535.1  9786.6484
535  11437.187
534.9  13363.559
534.8  15382.149
534.7  17295.731
534.6  19297.751
534.5  20941.473
534.4  21829.347
534.3  22811.166
534.2  22691.94
534.1  22078.328
534  20678.951
533.9  19183.758
533.8  17372.652
533.7  14951.817
533.6  12668.519
533.5  10578.635
533.4  8577.1083
533.3  6827.5339
533.2  5469.2879
533.1  4411.8236
533  3625.757
532.9  2995.6188
532.8  2518.4787
532.7  2156.8278
532.6  1874.0223
532.5  1803.4656
532.4  1624.4654
532.3  1495.1878
532.2  1328.7898
532.1  1284.8552
532  1229.9664
531.9  1234.3948
531.8  1137.4631
531.7  1095.5188
531.6  1049.5859
531.5  1041.1476
531.4  1036.0809
531.3  1021.0148
531.2  1002.8007
531.1  1013.5475
531  912.92001
530.9  914.24684
530.8  949.43907
530.7  921.79977
530.6  910.64801
530.5  925.69666
530.4  927.10037
530.3  920.00423
530.2  867.01082
530.1  864.92048
530  877.7286
529.9  877.71285
529.8  909.8335
529.7  844.45823
529.6  875.10088
529.5  868.38938
529.4  867.03976
529.3  853.90752
529.2  869.09204
529.1  860.91896
529  820.34716
528.9  861.72061
528.8  882.40798
528.7  870.66775
528.6  866.32362
528.5  887.26165
528.4  866.11544
528.3  829.52643
528.2  805.32492
528.1  824.84951
528  806.23699
527.9  790.611
527.8  811.91582
527.7  853.02668
527.6  870.47103
527.5  866.88926
527.4  835.88708
527.3  820.02985
527.2  809.93013
527.1  812.66252
527  805.4581
526.9  812.40276
526.8  806.0613
526.7  818.94303
526.6  831.80613
526.5  839.1765
526.4  854.76286
526.3  839.90044
526.2  838.47376
526.1  821.67451
526  807.63202
525.9  837.01702
525.8  813.53722
525.7  775.79013
525.6  789.28648
525.5  815.71093
525.4  824.54234
525.3  831.82528
525.2  817.36525
525.1  819.8135
525  828.26738
524.9  820.49061
524.8  799.99567
524.7  808.98083
524.6  815.68356
524.5  802.79654
524.4  797.43341
524.3  803.17692
524.2  808.72787
524.1  808.72944
524  811.52431
523.9  817.31906
523.8  820.80389
523.7  874.95008
523.6  835.51654
523.5  842.42352
523.4  846.25292
523.3  793.31505
523.2  779.23261
523.1  829.12641
523  806.25801
522.9  805.51953
522.8  834.27874
522.7  799.46746
522.6  820.80901
522.5  802.19205
522.4  797.48989
522.3  830.62023
522.2  814.95712
522.1  848.44268
522  829.525
521.9  806.07644
521.8  785.93813
521.7  789.72635
521.6  789.04958
521.5  810.21273
521.4  822.05357
521.3  806.35292
521.2  848.08507
521.1  826.69051
521  827.50889

