# Created by:        SpecsLab Prodigy, Version 4.50.2-r79252 
#
# XY-Serializer Export Settings:
#   Comment Prefix:           #
#   Output meta data:         yes
#   Energy Axis:              Binding Energy
#   Count Rate:               Counts per Second
#   Separate Scan Data:       no
#   Separate Channel Data:    no
#   External Channel Data:    yes
#   Transmission Function:    no
#   ErrorBar:                 no
#   Operation Results:        yes
#   Time Zone Format:         UTC
#
# Group:             Spectrum Group 25
#
# Region:            O1s
# Acquisition Date:  10/25/19 18:22:51 UTC
# Analysis Method:   XPS
# Analyzer:          Phoibos
# Analyzer Lens:     MediumArea:1.5kV
# Analyzer Slit:     5:7x20\B:open
# Scan Mode:         FixedAnalyzerTransmission
# Curves/Scan:       1
# Values/Curve:      491
# Dwell Time:        0.1
# Excitation Energy: 1486.71
# Binding Energy:    570
# Pass Energy:       10
# Bias Voltage:      90
# Detector Voltage:  1900
# Eff. Workfunction: 4.395
# Source:            Focus
# Comment:           
#
# Cycle: 0
# Number of Scans: 12
#
# Cycle: 0, Curve: 0
# Acquisition Date: 10/25/19 18:22:51 UTC
#
# ColumnLabels: energy counts/s
#
570  1654.2956
569.9  1601.9538
569.8  1655.2126
569.7  1590.2204
569.6  1628.9161
569.5  1620.6204
569.4  1666.5258
569.3  1610.4929
569.2  1618.834
569.1  1621.7105
569  1644.7265
568.9  1660.8477
568.8  1617.7493
568.7  1563.5231
568.6  1557.9381
568.5  1617.43
568.4  1664.1294
568.3  1611.7634
568.2  1556.4423
568.1  1514.2835
568  1569.1067
567.9  1596.043
567.8  1620.9513
567.7  1611.9673
567.6  1657.7785
567.5  1588.0154
567.4  1592.4519
567.3  1624.1629
567.2  1569.3755
567.1  1590.2066
567  1570.312
566.9  1597.7595
566.8  1614.4557
566.7  1635.3136
566.6  1649.9851
566.5  1665.4308
566.4  1740.4644
566.3  1683.1166
566.2  1638.1874
566.1  1661.2216
566  1744.3414
565.9  1706.3043
565.8  1675.7085
565.7  1654.7445
565.6  1638.889
565.5  1700.2981
565.4  1765.3076
565.3  1769.0398
565.2  1706.8461
565.1  1705.9696
565  1752.8692
564.9  1672.6813
564.8  1754.6374
564.7  1768.1866
564.6  1736.0781
564.5  1840.3164
564.4  1785.4271
564.3  1786.372
564.2  1837.6565
564.1  1791.8184
564  1810.3057
563.9  1852.3953
563.8  1775.4344
563.7  1803.5592
563.6  1773.1052
563.5  1812.8013
563.4  1780.1142
563.3  1771.8693
563.2  1878.0125
563.1  1863.1454
563  1858.0435
562.9  1788.111
562.8  1883.6478
562.7  1885.4278
562.6  1848.3756
562.5  1848.9153
562.4  1951.9874
562.3  1936.9997
562.2  1846.1495
562.1  1877.4498
562  1902.2386
561.9  1930.2252
561.8  1931.9593
561.7  1957.7991
561.6  1947.3729
561.5  1990.5723
561.4  2004.9749
561.3  2026.4676
561.2  2007.1745
561.1  2085.8399
561  2062.6408
560.9  2082.716
560.8  2073.4174
560.7  2050.8669
560.6  1958.4683
560.5  2048.2682
560.4  1992.653
560.3  2064.0628
560.2  2036.8726
560.1  2039.7858
560  2041.5565
559.9  2041.7347
559.8  2033.5639
559.7  2033.9085
559.6  2055.5332
559.5  2020.0485
559.4  2049.5725
559.3  2057.75
559.2  2066.7442
559.1  2056.3592
559  2060.6107
558.9  2077.5722
558.8  2082.723
558.7  2136.7341
558.6  2103.3588
558.5  2110.2015
558.4  2098.5943
558.3  2039.0049
558.2  2017.6003
558.1  2059.4839
558  2098.4268
557.9  2098.1346
557.8  2106.9573
557.7  2132.8678
557.6  2186.1296
557.5  2179.7428
557.4  2157.5297
557.3  2252.1547
557.2  2179.876
557.1  2219.5263
557  2268.6719
556.9  2246.7074
556.8  2214.9267
556.7  2250.1854
556.6  2208.1483
556.5  2304.8388
556.4  2311.1098
556.3  2310.1676
556.2  2230.3017
556.1  2226.4307
556  2240.5348
555.9  2159.2775
555.8  2241.7132
555.7  2261.1616
555.6  2177.8791
555.5  2161.1028
555.4  2079.7726
555.3  2047.1739
555.2  2071.5476
555.1  2055.6687
555  1933.1482
554.9  1961.9998
554.8  1943.337
554.7  1969.0478
554.6  1993.0534
554.5  1946.6063
554.4  1938.9922
554.3  1936.0341
554.2  1896.9275
554.1  1922.4652
554  1889.9894
553.9  1870.0646
553.8  1827.5034
553.7  1883.5787
553.6  1839.2843
553.5  1854.3733
553.4  1803.7777
553.3  1832.2647
553.2  1758.9557
553.1  1765.5985
553  1749.6496
552.9  1753.993
552.8  1728.4174
552.7  1646.0183
552.6  1699.7995
552.5  1662.2961
552.4  1697.9903
552.3  1685.2083
552.2  1622.703
552.1  1631.0004
552  1633.9813
551.9  1599.8291
551.8  1629.0341
551.7  1608.9374
551.6  1639.929
551.5  1601.7527
551.4  1601.8977
551.3  1535.0267
551.2  1563.7255
551.1  1636.1927
551  1599.2415
550.9  1568.2668
550.8  1596.3164
550.7  1530.6743
550.6  1497.4746
550.5  1481.113
550.4  1586.2174
550.3  1575.9576
550.2  1576.8517
550.1  1673.6339
550  1558.0865
549.9  1576.6462
549.8  1590.5582
549.7  1612.3064
549.6  1593.9417
549.5  1554.7246
549.4  1548.233
549.3  1563.0643
549.2  1543.0947
549.1  1536.6528
549  1518.5978
548.9  1497.1208
548.8  1476.3061
548.7  1536.4002
548.6  1493.4624
548.5  1455.381
548.4  1474.9959
548.3  1451.092
548.2  1465.7771
548.1  1475.6368
548  1417.9673
547.9  1443.5288
547.8  1411.3813
547.7  1425.358
547.6  1429.5145
547.5  1397.4892
547.4  1361.4281
547.3  1370.199
547.2  1384.883
547.1  1367.3833
547  1375.7993
546.9  1358.4553
546.8  1344.4234
546.7  1394.9068
546.6  1359.6184
546.5  1310.5857
546.4  1334.1719
546.3  1308.9937
546.2  1317.5102
546.1  1362.1061
546  1379.6948
545.9  1306.2379
545.8  1293.8146
545.7  1291.1746
545.6  1286.6455
545.5  1285.9286
545.4  1234.3472
545.3  1257.3787
545.2  1209.6882
545.1  1203.9641
545  1130.9662
544.9  1151.0318
544.8  1151.8969
544.7  1162.3949
544.6  1128.2355
544.5  1071.3778
544.4  1029.5789
544.3  1027.0916
544.2  1015.3725
544.1  985.43231
544  917.37735
543.9  942.59377
543.8  925.17793
543.7  869.27167
543.6  933.88243
543.5  928.82646
543.4  870.89805
543.3  895.18725
543.2  867.31382
543.1  873.25752
543  839.30396
542.9  831.71465
542.8  814.80395
542.7  823.90374
542.6  828.80434
542.5  832.40563
542.4  788.33189
542.3  798.87309
542.2  795.98767
542.1  816.94934
542  833.59173
541.9  783.22558
541.8  781.09028
541.7  803.89809
541.6  805.85294
541.5  772.36421
541.4  812.63103
541.3  797.5743
541.2  785.63724
541.1  782.31744
541  799.19133
540.9  806.01764
540.8  765.14757
540.7  803.02128
540.6  771.30071
540.5  816.77254
540.4  826.93343
540.3  766.66207
540.2  758.28656
540.1  801.61955
540  802.19647
539.9  779.75906
539.8  783.63483
539.7  773.32746
539.6  785.89961
539.5  774.41933
539.4  771.91533
539.3  773.6937
539.2  797.6057
539.1  787.56499
539  793.50047
538.9  847.74768
538.8  760.77543
538.7  784.52901
538.6  802.01722
538.5  769.79207
538.4  821.08866
538.3  810.74438
538.2  796.3319
538.1  838.90859
538  819.50307
537.9  850.31842
537.8  803.89138
537.7  805.90137
537.6  808.12125
537.5  867.68192
537.4  871.16447
537.3  867.57664
537.2  891.19643
537.1  873.90491
537  896.12738
536.9  901.04266
536.8  902.35864
536.7  916.65386
536.6  962.04682
536.5  1037.088
536.4  1099.8981
536.3  1146.1534
536.2  1222.0403
536.1  1405.209
536  1554.1063
535.9  1753.1283
535.8  2042.1254
535.7  2394.0494
535.6  2875.4933
535.5  3436.8894
535.4  4115.8416
535.3  5158.0926
535.2  6258.6954
535.1  7648.9195
535  9216.9887
534.9  10834.468
534.8  12450.2
534.7  14270.439
534.6  16184.031
534.5  17641.971
534.4  18691.124
534.3  19508.76
534.2  19910.868
534.1  19731.649
534  18642.622
533.9  17224.265
533.8  15439.942
533.7  13551.31
533.6  11440.2
533.5  9802.9376
533.4  7842.3376
533.3  6320.3174
533.2  5084.9341
533.1  4148.0745
533  3265.6192
532.9  2714.9859
532.8  2241.4771
532.7  1974.4569
532.6  1717.0668
532.5  1541.7086
532.4  1399.8639
532.3  1337.3823
532.2  1254.5011
532.1  1212.6886
532  1077.9412
531.9  1072.7401
531.8  1038.7526
531.7  1017.6036
531.6  982.27846
531.5  904.48809
531.4  890.47905
531.3  892.21636
531.2  841.04294
531.1  879.36776
531  896.38266
530.9  834.68914
530.8  803.3992
530.7  785.10774
530.6  778.31545
530.5  787.44833
530.4  789.88926
530.3  772.22131
530.2  753.09324
530.1  760.10735
530  781.87549
529.9  759.16249
529.8  740.46081
529.7  773.77133
529.6  746.15293
529.5  777.42223
529.4  752.50882
529.3  719.3803
529.2  743.27246
529.1  771.53079
529  762.04369
528.9  732.56159
528.8  719.13855
528.7  709.95936
528.6  737.56096
528.5  709.54043
528.4  699.80658
528.3  699.35053
528.2  694.84377
528.1  720.56487
528  724.53175
527.9  729.84327
527.8  738.85496
527.7  754.28388
527.6  727.33223
527.5  723.02177
527.4  751.51527
527.3  734.31018
527.2  706.57865
527.1  719.30718
527  704.14456
526.9  655.29062
526.8  687.28869
526.7  682.09858
526.6  702.61302
526.5  682.63447
526.4  696.53278
526.3  694.6138
526.2  690.19785
526.1  669.34703
526  689.58579
525.9  697.43344
525.8  652.79995
525.7  662.33295
525.6  705.80026
525.5  752.29731
525.4  728.95886
525.3  690.06504
525.2  675.53643
525.1  709.41537
525  685.536
524.9  681.16321
524.8  710.27219
524.7  723.55488
524.6  737.2555
524.5  721.51992
524.4  679.0941
524.3  664.72653
524.2  679.50691
524.1  671.60832
524  686.27496
523.9  697.15352
523.8  683.47424
523.7  701.42319
523.6  693.77078
523.5  670.91278
523.4  699.28842
523.3  676.38001
523.2  679.54833
523.1  679.29992
523  709.06462
522.9  719.69299
522.8  724.00159
522.7  725.98171
522.6  672.80083
522.5  701.19343
522.4  702.79905
522.3  726.14975
522.2  708.39152
522.1  697.78153
522  732.04932
521.9  640.57143
521.8  673.20874
521.7  696.28039
521.6  701.67282
521.5  712.49723
521.4  662.14571
521.3  647.48849
521.2  683.23548
521.1  690.81404
521  681.80096

