# Created by:        SpecsLab Prodigy, Version 4.50.2-r79252 
#
# XY-Serializer Export Settings:
#   Comment Prefix:           #
#   Output meta data:         yes
#   Energy Axis:              Binding Energy
#   Count Rate:               Counts per Second
#   Separate Scan Data:       no
#   Separate Channel Data:    no
#   External Channel Data:    yes
#   Transmission Function:    no
#   ErrorBar:                 no
#   Operation Results:        yes
#   Time Zone Format:         UTC
#
# Group:             Spectrum Group 0
#
# Region:            Survey
# Acquisition Date:  10/25/19 16:37:31 UTC
# Analysis Method:   XPS
# Analyzer:          Phoibos
# Analyzer Lens:     MediumArea:1.5kV
# Analyzer Slit:     5:7x20\B:open
# Scan Mode:         FixedAnalyzerTransmission
# Curves/Scan:       1
# Values/Curve:      1201
# Dwell Time:        0.1
# Excitation Energy: 1486.71
# Binding Energy:    1200
# Pass Energy:       50
# Bias Voltage:      90
# Detector Voltage:  1900
# Eff. Workfunction: 4.395
# Source:            Focus
# Comment:           
#
# Cycle: 0
# Number of Scans: 1
#
# Cycle: 0, Curve: 0
# Acquisition Date: 10/25/19 16:37:31 UTC
#
# ColumnLabels: energy counts/s
#
1200  18360.107
1199  18007.698
1198  18450.273
1197  17712.927
1196  17803.221
1195  19253.325
1194  19434.538
1193  18408.436
1192  18634.657
1191  18503.093
1190  18496.682
1189  19114.673
1188  18227.192
1187  18031.441
1186  17849.618
1185  18716.738
1184  19877.794
1183  18987.082
1182  18737.062
1181  18970.944
1180  18927.509
1179  18860.596
1178  19048.677
1177  18638.167
1176  18455.375
1175  18256.031
1174  18695.704
1173  18717.267
1172  18174.82
1171  18505.89
1170  18705.269
1169  18180.76
1168  18907.59
1167  18566.723
1166  19836.713
1165  19198.063
1164  19210.375
1163  18506.14
1162  19155.851
1161  18921.49
1160  18650.022
1159  18923.022
1158  19265.438
1157  19449.103
1156  19176.618
1155  19794.157
1154  18729.288
1153  19348.141
1152  19019.693
1151  19713.832
1150  19027.902
1149  19503.936
1148  19171.004
1147  19591.931
1146  19026.149
1145  18297.569
1144  18434.513
1143  19577.434
1142  19654.693
1141  19063.389
1140  18801.509
1139  19027.486
1138  19060.925
1137  19054.116
1136  18633.449
1135  18848.676
1134  19115.952
1133  19208.212
1132  19518.252
1131  19391.209
1130  19394.174
1129  19388.172
1128  19445.324
1127  18991.927
1126  19656.543
1125  19226.371
1124  19372.948
1123  19690.601
1122  19918.258
1121  20388.807
1120  19672.229
1119  18829.015
1118  20027.329
1117  20216.498
1116  19599.766
1115  19747.197
1114  19734.061
1113  19922.533
1112  19745.122
1111  20090.338
1110  20812.509
1109  19976.181
1108  19275.16
1107  19607.022
1106  19781.069
1105  20374.267
1104  19127.611
1103  20296.943
1102  20680.738
1101  20490.85
1100  20248.7
1099  21190.993
1098  20277.025
1097  19656.03
1096  20344.133
1095  20018.662
1094  20400.914
1093  19964.584
1092  20222.501
1091  20152.158
1090  20542.622
1089  20647.831
1088  20466.076
1087  20501.068
1086  21925.031
1085  20780.166
1084  20846.199
1083  20771.559
1082  20806.525
1081  20545.121
1080  21089.047
1079  21539.075
1078  21374.078
1077  21673.712
1076  20982.296
1075  20882.062
1074  21306.578
1073  22082.445
1072  21824.792
1071  22059.956
1070  21320.962
1069  21788.043
1068  21653.592
1067  21789.756
1066  21671.914
1065  21997.001
1064  22149.205
1063  21701.264
1062  22032.909
1061  22196.981
1060  22430.163
1059  22861.444
1058  22664.508
1057  22173.241
1056  22192.571
1055  22708.688
1054  22802.506
1053  23245.346
1052  22686.501
1051  23601.597
1050  23519.753
1049  22833.872
1048  22991.548
1047  23055.999
1046  23111.588
1045  23111.535
1044  23628.341
1043  23834.83
1042  23306.082
1041  23413.622
1040  23383.362
1039  23322.05
1038  24520.016
1037  24550.03
1036  24431.889
1035  24291.838
1034  23516.307
1033  24041.783
1032  24570.521
1031  25348.211
1030  24886.284
1029  24966.839
1028  25657.835
1027  25908.122
1026  25344.161
1025  25374.741
1024  25577.773
1023  25408.064
1022  26296.3
1021  26930.968
1020  26639.581
1019  27312.111
1018  26889.58
1017  26267.549
1016  25737.924
1015  25360.977
1014  25321.573
1013  25349.87
1012  25615.771
1011  25260.828
1010  26206.818
1009  27276.103
1008  27021.948
1007  28969.667
1006  29845.415
1005  30166.395
1004  30414.616
1003  31590.832
1002  31451.405
1001  29671.02
1000  27144.554
999  26649.267
998  26191.608
997  25779.011
996  25917.08
995  24538.368
994  23284.623
993  23511.07
992  23821.259
991  24391.267
990  25019.907
989  24461.703
988  24304.249
987  26941.433
986  30626.678
985  34219.34
984  35710.441
983  37549.689
982  42106.714
981  44131.598
980  38480.534
979  33044.581
978  27575.094
977  25422.647
976  23579.232
975  20662.843
974  19235.294
973  18095.501
972  16809.898
971  15331.527
970  13161.155
969  12819.266
968  11753.097
967  10811.935
966  10769.442
965  11545.793
964  10946.783
963  10596.574
962  10348.44
961  10528.209
960  10819.268
959  11125.015
958  10339.865
957  10230.514
956  10281.498
955  10724.726
954  11163.305
953  12001.019
952  11563.934
951  10889.256
950  11011.147
949  10942.847
948  11294.889
947  11013.868
946  11348.273
945  10958.412
944  11314.627
943  11523.023
942  11222.274
941  11725.294
940  10887.66
939  11303.909
938  11044.178
937  11640.34
936  11093.017
935  11439.826
934  11140.87
933  11310.689
932  11407.453
931  11440.172
930  11345.263
929  11584.209
928  11324.858
927  11512.716
926  11769.425
925  11727.445
924  11548.249
923  11582.033
922  11303.838
921  11688.456
920  11532.319
919  11540.513
918  11457.445
917  11494.329
916  11272.06
915  11116.715
914  12172.524
913  11503.839
912  11510.395
911  11446.839
910  11621.827
909  11827.699
908  11577.483
907  11824.88
906  11675.395
905  12271.448
904  12080.474
903  11629.244
902  11425.972
901  11856.42
900  12127.234
899  11630.417
898  11441.31
897  11569.493
896  12283.309
895  12186.38
894  12484.108
893  12230.491
892  12036.267
891  12449.528
890  12422.083
889  13033.598
888  12827.215
887  12589.273
886  12420.087
885  12786.958
884  12690.782
883  12439.101
882  12031.065
881  12167.133
880  12719.116
879  11777.95
878  12360.97
877  12434.564
876  12669.437
875  13669.177
874  12600.689
873  12899.143
872  13514.673
871  12368.628
870  12225.653
869  12883.334
868  12996.743
867  12719.764
866  13107.168
865  13035.657
864  13403.549
863  13378.492
862  13191.04
861  13242.366
860  13277.183
859  13601.919
858  13281.661
857  12458.043
856  12905.901
855  13519.031
854  13022.305
853  12441.774
852  13095.676
851  13928.544
850  13401.766
849  13130.334
848  13484.145
847  14085.148
846  13864.218
845  13651.124
844  14132.413
843  14276.621
842  13736.281
841  14139.177
840  14085.971
839  14654.096
838  13862.983
837  13855.433
836  13656.412
835  13770.807
834  13844.426
833  13239.522
832  13532.714
831  13531.793
830  14145.639
829  13673.526
828  13700.567
827  13885.831
826  14457.344
825  14498.722
824  14849.303
823  14021.979
822  14714.045
821  14728.434
820  13846.843
819  14059.931
818  14309.219
817  14321.831
816  14662.315
815  14307.956
814  14379.001
813  14670.471
812  14580.515
811  14866.804
810  14916.176
809  14955.959
808  15117
807  15002.351
806  14579.203
805  15057.344
804  15127.244
803  14418.08
802  15027.329
801  15303.957
800  14972.411
799  14576.911
798  15050.405
797  15165.809
796  15008.479
795  14851.596
794  14965.169
793  15402.336
792  15105.43
791  15603.027
790  15120.767
789  15050.655
788  15523.014
787  15453.361
786  15517.773
785  15514.828
784  15976.874
783  15245.464
782  15986.493
781  15164.462
780  15754.077
779  15715.703
778  15563.494
777  15768.672
776  15675.689
775  16115.765
774  16492.319
773  16296.518
772  15726.578
771  16161.461
770  16515.437
769  16361.443
768  16161.891
767  15663.363
766  16330.432
765  16508.428
764  16446.908
763  16701.998
762  16906.401
761  16669.604
760  16299.643
759  17233.519
758  16848.395
757  16857.122
756  16536.248
755  16500.752
754  16803.257
753  17103.773
752  16736.216
751  16606.761
750  16548.454
749  16929.613
748  16963.208
747  17104.176
746  17260.12
745  17497.351
744  17617.931
743  17021.577
742  16791.111
741  17491.796
740  17146.49
739  17138.612
738  17304.811
737  17460.192
736  17330.204
735  16751.183
734  17101.894
733  17475.851
732  18191.152
731  17182.93
730  17987.293
729  17594.933
728  17579.706
727  17637.222
726  17728.631
725  18177.348
724  18530.118
723  18212.809
722  18328.028
721  18255.412
720  18575.563
719  17725.68
718  18574.149
717  18746.741
716  18715.567
715  18664.723
714  18484.079
713  18554.859
712  18409.221
711  18926.66
710  19947.773
709  18977.459
708  18903.492
707  18498.64
706  18588.902
705  18795.932
704  18273.149
703  18928.862
702  19073.765
701  18549.742
700  19257.9
699  19447.36
698  19131.702
697  18775.066
696  19484.361
695  19754.027
694  19625.265
693  19920.157
692  19645.16
691  19740.119
690  20682.55
689  20565.274
688  20732.685
687  20431.161
686  20626.993
685  20403.106
684  20854.898
683  20278.43
682  20518.754
681  20719.208
680  19971.7
679  21012.592
678  20804.077
677  20911.775
676  21468.621
675  20922.821
674  20984.713
673  21141.554
672  21442.885
671  20824.48
670  20794.693
669  21411.373
668  21514.072
667  20792.543
666  21059.951
665  21464.407
664  21831.677
663  22290.374
662  22248.904
661  21734.535
660  22079.521
659  22620.8
658  21748.322
657  21635.663
656  22130.368
655  22426.899
654  21416.442
653  22347.019
652  22718.268
651  22283.404
650  22442.839
649  22529.99
648  22393.737
647  23099.861
646  22941.274
645  22833.607
644  23166.081
643  24126.472
642  23183.495
641  23927.048
640  23857.561
639  22716.537
638  23437.111
637  24311.521
636  23635.075
635  24407.6
634  24400.552
633  24172.36
632  23470.264
631  23695.811
630  24255.849
629  24609.867
628  24220.353
627  24628.21
626  24400.226
625  24493.609
624  25035.645
623  24760.306
622  24767.453
621  25420.288
620  24972.87
619  25374.655
618  25390.375
617  25382.593
616  25322.02
615  25687.609
614  26067.544
613  25199.899
612  25818.999
611  26881.093
610  26497.698
609  26203.382
608  26298.124
607  26632.003
606  26604.957
605  25982.106
604  26249.84
603  27101.045
602  27044.443
601  26840.002
600  27252.594
599  28406.719
598  27761.563
597  27638.401
596  27848.242
595  27332.151
594  27730.919
593  28514.431
592  28590.331
591  28799.589
590  28934.603
589  28353.215
588  29522.49
587  30245.043
586  30108.457
585  29503.8
584  29694.481
583  30539.739
582  30653.51
581  30271.758
580  30135.146
579  30028.293
578  29342.548
577  29654.315
576  30140.828
575  29947.416
574  29486.941
573  29445.808
572  29573.213
571  29851.962
570  29442.989
569  28842.911
568  28776.565
567  28709.985
566  30252.253
565  31162.805
564  32870.393
563  32740.909
562  34100.913
561  36744.985
560  36583.453
559  37033.236
558  37710.111
557  38471.497
556  39359.477
555  36895.795
554  35367.341
553  32657.446
552  30337.588
551  28140.443
550  28112.605
549  26934.544
548  25724.186
547  24630.519
546  23161.773
545  20556.87
544  17160.558
543  15259.586
542  14400.156
541  13948.663
540  14077.08
539  14623.276
538  17258.222
537  21133.794
536  49908.664
535  172313.55
534  249935.22
533  111758.6
532  29387.268
531  16616.421
530  14005.41
529  13407.214
528  13004.347
527  12418.126
526  12766.606
525  12394.436
524  12612.253
523  12774.075
522  12514.287
521  12851.792
520  13137.11
519  13139.539
518  12955.853
517  12782.126
516  12422.988
515  12361.36
514  12461.416
513  12516.433
512  12585.945
511  12565.748
510  12819.807
509  12696.297
508  12718.426
507  12213.168
506  12462.123
505  13036.276
504  13252.068
503  12894.152
502  12419.334
501  12665.117
500  13323.817
499  12897.619
498  12762.786
497  13279.806
496  13262.801
495  13746.483
494  13157.957
493  12687.018
492  13241.816
491  13238.973
490  13140.154
489  13008.558
488  13764.473
487  13269.366
486  12816.792
485  13175.712
484  13234.982
483  12756.813
482  13168.443
481  13296.73
480  13157.222
479  13683.639
478  13679.36
477  13980.034
476  13421.944
475  13393.117
474  13172.263
473  12869.448
472  12996.454
471  12692.26
470  13047.284
469  12927.735
468  13505.844
467  13237.8
466  13138.368
465  12986.94
464  12599.509
463  13750.386
462  13406.138
461  13559.151
460  14294.579
459  13656.534
458  14071.202
457  13525.848
456  13843.568
455  13859.859
454  13614.131
453  13843.278
452  13793.733
451  13829.561
450  13652.09
449  13599.03
448  13440.809
447  13702.475
446  13438.465
445  13458.568
444  13794.483
443  13814.653
442  13878.192
441  14146.568
440  14241.451
439  14169.263
438  14078.984
437  13264.701
436  13914.038
435  13733.389
434  13653.938
433  13968.641
432  13505.695
431  13734.383
430  14381.09
429  14274.14
428  14024.685
427  13914.571
426  13883.022
425  14146.976
424  14660.862
423  14860.909
422  13697.164
421  13836.416
420  14642.603
419  14390.143
418  14240.397
417  14141.795
416  14774.877
415  14577
414  14568.753
413  14352.844
412  14296.016
411  14033.602
410  14340.696
409  14243.25
408  13421.825
407  13868.785
406  14366.627
405  13989.016
404  14095.084
403  14047.477
402  14225.699
401  14608.897
400  14796.482
399  14496.397
398  13920.922
397  13797.156
396  14544.538
395  14723.618
394  14265.16
393  14787.693
392  14367.119
391  14752.256
390  14510.811
389  14091.791
388  14224.209
387  14715.169
386  13689.664
385  14388.381
384  14858.496
383  14924.673
382  15272.333
381  14485.689
380  15420.029
379  15357.804
378  14913.073
377  14267.487
376  15001.394
375  14900.83
374  15062.74
373  14441.448
372  14799.742
371  14715.331
370  14045.839
369  14538.272
368  15441.171
367  14929.254
366  14598.708
365  14386.55
364  14944.844
363  15134.613
362  14547.742
361  14746.097
360  14620.264
359  14368.145
358  15043.014
357  15454.053
356  15167.388
355  14603.389
354  14503.794
353  15280.085
352  14698.812
351  14437.729
350  15050.152
349  14724.359
348  14822.031
347  14853.507
346  15115.026
345  15029.601
344  15024.99
343  15608.805
342  15734.805
341  15610.407
340  15237.318
339  14869.028
338  15050.534
337  16189.954
336  15920.691
335  15378.935
334  15073.281
333  15338.985
332  15053.347
331  15444.257
330  15588.227
329  15420.504
328  15303.471
327  15454.835
326  15382.597
325  15603.011
324  15429.468
323  15667.958
322  15968.049
321  15901.041
320  15183.856
319  15777.875
318  15427.134
317  15470.709
316  15444.14
315  15618.78
314  15637.463
313  15211.383
312  15472.984
311  15750.092
310  16316.761
309  15557.758
308  15216.518
307  14922.01
306  15783.238
305  15509.067
304  15539.242
303  15694.056
302  16107.341
301  15870.337
300  15485.007
299  15714.879
298  15162.184
297  15255.649
296  15627.879
295  15931.475
294  15805.929
293  15636.567
292  16067.513
291  16825.601
290  16373.061
289  15925.258
288  16482.631
287  21103.092
286  23709.564
285  19486.627
284  16786.575
283  15612.482
282  15901.462
281  15354.07
280  15592.501
279  15874.183
278  15635.876
277  15663.583
276  16211.616
275  15948.143
274  16119.207
273  15921.155
272  16155.759
271  16328.136
270  15849.092
269  16403.405
268  15773.757
267  15803.229
266  16012.835
265  15643.391
264  16528.344
263  16173.752
262  16310.384
261  16106.582
260  15378.504
259  15535.29
258  15727.903
257  16313.179
256  15997.336
255  16119.498
254  16166.033
253  15730.185
252  16059.119
251  15950.208
250  16378.606
249  16754.732
248  16054.644
247  16286.714
246  16544.439
245  16736.048
244  16380.365
243  16378.556
242  16478.4
241  16856.396
240  17498.659
239  16485.35
238  16535.43
237  16504.751
236  16660.677
235  16480.626
234  16238.501
233  16504.086
232  16320.538
231  16300.021
230  16330.142
229  16370.899
228  16582.068
227  16628.704
226  16554.124
225  16733.7
224  16727.031
223  16852.491
222  16479.948
221  16822.747
220  16699.831
219  16769.376
218  16400.444
217  16989.801
216  16434.298
215  16239.837
214  16541.816
213  16719.802
212  16760.487
211  16879.277
210  16189.782
209  16569.11
208  16722.541
207  17056.603
206  17645.2
205  17061.186
204  17217.769
203  16929.078
202  16690.612
201  16664.23
200  17243.457
199  16928.043
198  17081.93
197  17635.12
196  16853.439
195  16535.416
194  17340.708
193  16534.844
192  16130.638
191  17001.052
190  16963.153
189  16800.194
188  16537.811
187  17045.182
186  18089.023
185  17394.074
184  17582.026
183  17556.864
182  17703.064
181  16965.275
180  17076.417
179  17601.088
178  18159.015
177  17713.251
176  17091.688
175  17093.115
174  17458.389
173  17204.747
172  17192.521
171  16676.086
170  16797.316
169  16788.884
168  16609.055
167  15454.372
166  13746.318
165  12668.362
164  12538.209
163  12047.558
162  11980.925
161  11965.478
160  12576.317
159  14702.831
158  20414.046
157  35099.12
156  49207.159
155  39469.759
154  23851.64
153  18219.747
152  21017.056
151  22633.359
150  15196.164
149  11171.893
148  10009.273
147  10563.649
146  9408.5276
145  9153.3734
144  9506.3365
143  8997.8798
142  8837.6016
141  9203.4317
140  8972.0931
139  8850.412
138  9163.2303
137  8962.0455
136  9350.4802
135  8859.9672
134  9368.9829
133  9100.0264
132  8709.594
131  8589.4049
130  8816.1749
129  8874.8619
128  9262.4728
127  9359.795
126  9117.832
125  9351.5018
124  8949.0949
123  8158.924
122  8042.5276
121  8322.8537
120  8561.3007
119  8856.9445
118  8587.3455
117  8583.1431
116  7298.3346
115  5953.38
114  4224.3477
113  3649.2157
112  3369.9104
111  2995.075
110  2908.9916
109  3027.1231
108  3560.8704
107  6661.0154
106  26949.883
105  53060.564
104  34462.34
103  9621.0726
102  4627.247
101  9254.2251
100  15673.543
99  7533.7253
98  2007.6547
97  1651.0719
96  1563.3835
95  1571.6985
94  1551.006
93  1486.8792
92  1517.0337
91  1645.0161
90  1584.6474
89  1474.723
88  1615.6495
87  1680.5219
86  1628.5672
85  1692.8916
84  1634.4061
83  1556.8376
82  1775.4478
81  1732.3504
80  1592.9203
79  1696.9758
78  1442.5747
77  1699.9547
76  1692.9273
75  1844.0294
74  1611.8341
73  1623.2377
72  1761.7666
71  1718.6236
70  1983.9551
69  1845.2595
68  1782.9164
67  1759.829
66  1849.9236
65  1878.3437
64  1807.5639
63  1700.14
62  1636.7022
61  1946.2715
60  1875.0585
59  1996.3053
58  1936.8106
57  1907.2517
56  2171.3699
55  2352.2786
54  2128.7636
53  2285.8951
52  2285.7933
51  2029.9501
50  2437.5869
49  1955.2397
48  1867.0767
47  1891.7792
46  1860.3688
45  1909.7461
44  1960.5339
43  2047.7878
42  1921.7203
41  1715.8129
40  1807.0132
39  1800.8735
38  1529.7985
37  1400.9538
36  1703.9013
35  1648.5854
34  1766.6698
33  1948.0267
32  2008.5644
31  2267.9335
30  3259.0653
29  4661.2687
28  6375.6025
27  7820.0392
26  7750.1374
25  4252.624
24  1903.4669
23  866.65801
22  755.34326
21  661.17911
20  538.62495
19  404.6339
18  913.54987
17  1667.6708
16  2229.4531
15  2107.2374
14  1847.8144
13  1955.3338
12  1648.4028
11  1578.1262
10  1908.0746
9  2088.429
8  1794.2815
7  1173.8716
6  438.74824
5  346.47431
4  377.74548
3  297.65825
2  252.77254
1  77.86725
0  40.69169

# Region:            C1s
# Acquisition Date:  10/25/19 16:55:32 UTC
# Analysis Method:   XPS
# Analyzer:          Phoibos
# Analyzer Lens:     MediumArea:1.5kV
# Analyzer Slit:     5:7x20\B:open
# Scan Mode:         FixedAnalyzerTransmission
# Curves/Scan:       1
# Values/Curve:      71
# Dwell Time:        0.1
# Excitation Energy: 1486.71
# Binding Energy:    289
# Pass Energy:       10
# Bias Voltage:      90
# Detector Voltage:  1900
# Eff. Workfunction: 4.395
# Source:            Focus
# Comment:           
#
# Cycle: 0
# Number of Scans: 12
#
# Cycle: 0, Curve: 0
# Acquisition Date: 10/25/19 16:55:32 UTC
#
# ColumnLabels: energy counts/s
#
289  1046.6915
288.9  1078.8698
288.8  1068.0028
288.7  1057.0062
288.6  1046.4203
288.5  1168.7682
288.4  1133.4303
288.3  1123.9762
288.2  1097.2153
288.1  1120.765
288  1082.4841
287.9  1149.4969
287.8  1148.2298
287.7  1180.4382
287.6  1121.3943
287.5  1191.8341
287.4  1187.9375
287.3  1183.349
287.2  1215.7812
287.1  1258.3241
287  1309.7494
286.9  1370.1768
286.8  1439.6291
286.7  1513.063
286.6  1568.8108
286.5  1659.7985
286.4  1665.952
286.3  1704.3533
286.2  1718.9292
286.1  1750.4049
286  1724.8397
285.9  1715.1139
285.8  1648.6024
285.7  1574.5765
285.6  1493.6563
285.5  1447.3617
285.4  1371.3859
285.3  1332.3673
285.2  1189.5506
285.1  1171.6282
285  1171.1686
284.9  1101.6526
284.8  1100.2025
284.7  1054.6695
284.6  972.28408
284.5  988.77416
284.4  1034.9365
284.3  1040.3934
284.2  1016.914
284.1  1042.7102
284  1040.2089
283.9  1013.1679
283.8  1014.8569
283.7  1019.0143
283.6  1070.6359
283.5  1044.8043
283.4  1037.1668
283.3  1050.404
283.2  1034.8559
283.1  1045.0841
283  1028.0766
282.9  997.99678
282.8  1011.1789
282.7  1029.3686
282.6  996.72672
282.5  1029.1775
282.4  1078.368
282.3  1081.5565
282.2  1045.3884
282.1  1039.3398
282  1070.8562

# Region:            O1s
# Acquisition Date:  10/25/19 17:06:56 UTC
# Analysis Method:   XPS
# Analyzer:          Phoibos
# Analyzer Lens:     MediumArea:1.5kV
# Analyzer Slit:     5:7x20\B:open
# Scan Mode:         FixedAnalyzerTransmission
# Curves/Scan:       1
# Values/Curve:      491
# Dwell Time:        0.1
# Excitation Energy: 1486.71
# Binding Energy:    570
# Pass Energy:       10
# Bias Voltage:      90
# Detector Voltage:  1900
# Eff. Workfunction: 4.395
# Source:            Focus
# Comment:           
#
# Cycle: 0
# Number of Scans: 12
#
# Cycle: 0, Curve: 0
# Acquisition Date: 10/25/19 17:06:56 UTC
#
# ColumnLabels: energy counts/s
#
570  2373.7829
569.9  2409.7796
569.8  2328.5554
569.7  2350.9546
569.6  2344.6005
569.5  2334.8909
569.4  2310.816
569.3  2344.2745
569.2  2307.4914
569.1  2259.8045
569  2267.3173
568.9  2270.4531
568.8  2256.4656
568.7  2284.1833
568.6  2268.1957
568.5  2296.1842
568.4  2293.2061
568.3  2289.5902
568.2  2249.1519
568.1  2250.9447
568  2272.2047
567.9  2326.2014
567.8  2235.2499
567.7  2247.8721
567.6  2232.2511
567.5  2190.1812
567.4  2213.2334
567.3  2247.8256
567.2  2246.8008
567.1  2322.31
567  2368.671
566.9  2340.6227
566.8  2344.9858
566.7  2373.559
566.6  2413.9701
566.5  2368.2034
566.4  2483.3432
566.3  2389.3175
566.2  2351.783
566.1  2393.6112
566  2404.4946
565.9  2403.6636
565.8  2386.5936
565.7  2365.2412
565.6  2345.7337
565.5  2380.542
565.4  2365.7984
565.3  2372.9723
565.2  2456.4499
565.1  2537.065
565  2435.051
564.9  2363.0158
564.8  2407.5464
564.7  2429.8323
564.6  2542.8385
564.5  2512.1286
564.4  2517.3197
564.3  2482.4159
564.2  2500.0655
564.1  2560.2839
564  2510.5871
563.9  2552.8843
563.8  2533.349
563.7  2588.0743
563.6  2604.5087
563.5  2577.561
563.4  2670.7214
563.3  2729.4046
563.2  2601.7235
563.1  2626.224
563  2675.3967
562.9  2647.0723
562.8  2740.4679
562.7  2730.628
562.6  2737.5078
562.5  2703.7452
562.4  2659.3646
562.3  2746.1135
562.2  2695.0812
562.1  2773.6992
562  2674.6488
561.9  2755.0369
561.8  2762.3712
561.7  2731.4893
561.6  2811.1442
561.5  2821.5159
561.4  2816.9518
561.3  2845.8726
561.2  2860.919
561.1  2890.0652
561  2866.7023
560.9  2913.4104
560.8  2813.6261
560.7  2817.3479
560.6  2860.7251
560.5  2822.4612
560.4  2748.272
560.3  2768.6922
560.2  2792.9434
560.1  2989.2057
560  2931.2684
559.9  2770.5259
559.8  2863.7863
559.7  2896.1621
559.6  2866.5435
559.5  2898.277
559.4  2898.3048
559.3  2921.574
559.2  2849.7036
559.1  2930.9533
559  2865.651
558.9  2922.3457
558.8  2911.524
558.7  2882.818
558.6  2952.6083
558.5  2865.8048
558.4  2892.7506
558.3  2922.6302
558.2  2945.0082
558.1  3003.9817
558  3008.1757
557.9  2974.1742
557.8  3100.9387
557.7  3046.8893
557.6  3033.2104
557.5  3099.834
557.4  3079.0039
557.3  3063.0376
557.2  3060.0346
557.1  3060.9122
557  3159.0342
556.9  3147.6604
556.8  3145.1359
556.7  3151.0962
556.6  3103.9243
556.5  3214.9801
556.4  3203.7489
556.3  3191.2793
556.2  3173.0127
556.1  3120.7849
556  3094.0031
555.9  3149.7809
555.8  3162.894
555.7  3095.3688
555.6  3004.3058
555.5  2983.3533
555.4  2974.6753
555.3  2939.7509
555.2  2889.2615
555.1  2935.9739
555  2831.2372
554.9  2837.5872
554.8  2777.6582
554.7  2784.4964
554.6  2799.3234
554.5  2702.1507
554.4  2772.9576
554.3  2730.9723
554.2  2717.8685
554.1  2724.1182
554  2711.691
553.9  2660.4882
553.8  2667.4566
553.7  2594.7232
553.6  2597.5344
553.5  2627.8288
553.4  2582.3892
553.3  2548.0513
553.2  2581.9297
553.1  2568.197
553  2465.739
552.9  2468.0159
552.8  2413.4262
552.7  2406.6135
552.6  2402.8645
552.5  2424.4404
552.4  2370.7887
552.3  2412.5069
552.2  2328.1181
552.1  2331.7126
552  2392.0864
551.9  2333.7292
551.8  2295.9131
551.7  2275.1386
551.6  2275.8218
551.5  2302.7834
551.4  2216.9392
551.3  2283.9418
551.2  2298.5384
551.1  2243.3811
551  2198.8911
550.9  2199.5136
550.8  2223.1335
550.7  2190.937
550.6  2217.1854
550.5  2220.0369
550.4  2309.2914
550.3  2282.0671
550.2  2257.1399
550.1  2225.0192
550  2191.094
549.9  2210.8498
549.8  2234.3535
549.7  2251.0282
549.6  2212.3977
549.5  2227.7757
549.4  2137.581
549.3  2104.4894
549.2  2175.8276
549.1  2256.3645
549  2158.302
548.9  2144.6522
548.8  2080.1904
548.7  2127.3407
548.6  2120.8904
548.5  2109.6483
548.4  2115.4065
548.3  2162.7642
548.2  2086.7732
548.1  2007.0351
548  2010.7254
547.9  1991.3392
547.8  1959.5145
547.7  1965.6678
547.6  2021.5986
547.5  1969.9847
547.4  1919.076
547.3  1988.0355
547.2  1971.5924
547.1  1931.0354
547  1839.1739
546.9  1833.3194
546.8  1878.9826
546.7  1907.0307
546.6  1904.5078
546.5  1861.602
546.4  1860.3703
546.3  1900.0449
546.2  1845.6038
546.1  1889.5143
546  1801.9353
545.9  1795.9209
545.8  1755.4019
545.7  1809.9562
545.6  1779.5812
545.5  1786.0898
545.4  1695.2379
545.3  1644.8699
545.2  1705.0174
545.1  1677.021
545  1654.4006
544.9  1584.2511
544.8  1488.172
544.7  1491.414
544.6  1499.2153
544.5  1471.8837
544.4  1406.0424
544.3  1419.4405
544.2  1425.5575
544.1  1407.2668
544  1360.6012
543.9  1289.0383
543.8  1295.4996
543.7  1296.8534
543.6  1248.3532
543.5  1260.9062
543.4  1251.1722
543.3  1196.3313
543.2  1188.6415
543.1  1206.2817
543  1149.819
542.9  1148.3379
542.8  1151.7654
542.7  1138.6567
542.6  1156.8713
542.5  1119.4728
542.4  1141.1811
542.3  1135.4681
542.2  1135.5712
542.1  1152.6869
542  1113.2953
541.9  1097.4044
541.8  1113.6202
541.7  1166.4111
541.6  1085.0845
541.5  1116.5657
541.4  1120.8236
541.3  1111.6045
541.2  1065.5272
541.1  1090.2754
541  1116.6128
540.9  1056.8078
540.8  1105.9598
540.7  1081.6472
540.6  1075.686
540.5  1088.6934
540.4  1126.8068
540.3  1126.2588
540.2  1140.5841
540.1  1112.2286
540  1087.2077
539.9  1073.1008
539.8  1086.5138
539.7  1163.6294
539.6  1082.5477
539.5  1076.3923
539.4  1093.2253
539.3  1107.5018
539.2  1073.4809
539.1  1135.2907
539  1148.3458
538.9  1107.6681
538.8  1109.175
538.7  1159.8751
538.6  1129.9891
538.5  1078.2513
538.4  1082.3855
538.3  1113.7626
538.2  1178.5024
538.1  1170.3878
538  1168.298
537.9  1164.7296
537.8  1134.303
537.7  1122.0645
537.6  1159.3775
537.5  1198.8206
537.4  1185.4087
537.3  1196.7668
537.2  1249.9826
537.1  1228.3051
537  1267.372
536.9  1258.911
536.8  1317.9046
536.7  1335.2211
536.6  1366.267
536.5  1523.19
536.4  1605.6041
536.3  1770.0592
536.2  1896.628
536.1  2162.1709
536  2483.3899
535.9  2901.3638
535.8  3427.406
535.7  4080.8848
535.6  4881.0479
535.5  5859.4593
535.4  7305.2251
535.3  8797.1658
535.2  10558.223
535.1  12589.764
535  15106.834
534.9  17458.46
534.8  19906.969
534.7  22328.279
534.6  24638.344
534.5  26085.344
534.4  27569.588
534.3  27979.969
534.2  27376.089
534.1  26198.069
534  24522.096
533.9  22070.003
533.8  19276.676
533.7  16582.778
533.6  13920.986
533.5  11359.538
533.4  9188.9125
533.3  7304.1159
533.2  5882.3561
533.1  4807.8213
533  3899.179
532.9  3287.7483
532.8  2888.2347
532.7  2513.531
532.6  2288.5012
532.5  2054.8031
532.4  1862.1859
532.3  1771.8706
532.2  1660.1779
532.1  1585.5868
532  1542.7124
531.9  1422.1611
531.8  1412.501
531.7  1347.196
531.6  1318.8719
531.5  1305.8684
531.4  1275.1005
531.3  1267.6329
531.2  1205.6611
531.1  1161.4397
531  1168.9585
530.9  1131.7228
530.8  1150.3297
530.7  1130.7516
530.6  1053.309
530.5  1039.8486
530.4  1081.5602
530.3  1103.004
530.2  1094.5857
530.1  1105.5354
530  1083.9597
529.9  1070.3216
529.8  1056.5685
529.7  1051.7703
529.6  1057.1571
529.5  1085.9942
529.4  1044.0817
529.3  998.33364
529.2  1011.8027
529.1  982.64969
529  990.05474
528.9  1043.1725
528.8  1002.5737
528.7  1016.192
528.6  1002.233
528.5  1022.57
528.4  1039.4265
528.3  1035.4131
528.2  1009.1657
528.1  1014.805
528  1035.2674
527.9  1019.4413
527.8  1021.8033
527.7  1019.404
527.6  968.63053
527.5  1002.0463
527.4  998.03893
527.3  982.7353
527.2  956.77454
527.1  1043.2374
527  1008.1993
526.9  985.36336
526.8  942.30934
526.7  980.71478
526.6  937.34178
526.5  994.68008
526.4  1001.2535
526.3  1007.6619
526.2  999.14234
526.1  1025.2788
526  945.13316
525.9  963.7367
525.8  959.26272
525.7  909.4755
525.6  963.63146
525.5  968.76869
525.4  966.68186
525.3  1015.4638
525.2  999.98701
525.1  997.18224
525  1008.6619
524.9  992.34219
524.8  976.37014
524.7  963.98885
524.6  983.17651
524.5  961.30129
524.4  965.09868
524.3  981.59569
524.2  972.71637
524.1  989.082
524  968.41098
523.9  966.9796
523.8  959.83759
523.7  1011.0871
523.6  1009.0923
523.5  966.20864
523.4  988.20168
523.3  1004.836
523.2  962.65798
523.1  975.71687
523  1000.2126
522.9  987.68457
522.8  987.88122
522.7  977.07409
522.6  981.6816
522.5  946.62271
522.4  982.65246
522.3  964.33573
522.2  955.26956
522.1  990.05418
522  996.07414
521.9  982.25942
521.8  953.64843
521.7  970.66442
521.6  964.02969
521.5  1010.7402
521.4  966.6134
521.3  958.21217
521.2  952.29725
521.1  966.49806
521  973.37716

# Region:            Si2p
# Acquisition Date:  10/25/19 17:10:45 UTC
# Analysis Method:   XPS
# Analyzer:          Phoibos
# Analyzer Lens:     MediumArea:1.5kV
# Analyzer Slit:     5:7x20\B:open
# Scan Mode:         FixedAnalyzerTransmission
# Curves/Scan:       1
# Values/Curve:      151
# Dwell Time:        0.1
# Excitation Energy: 1486.71
# Binding Energy:    110
# Pass Energy:       10
# Bias Voltage:      90
# Detector Voltage:  1900
# Eff. Workfunction: 4.395
# Source:            Focus
# Comment:           
#
# Cycle: 0
# Number of Scans: 12
#
# Cycle: 0, Curve: 0
# Acquisition Date: 10/25/19 17:10:45 UTC
#
# ColumnLabels: energy counts/s
#
110  188.94495
109.9  177.46842
109.8  172.2697
109.7  183.70289
109.6  169.42055
109.5  174.54719
109.4  163.53309
109.3  168.34375
109.2  157.30534
109.1  181.17602
109  171.67305
108.9  171.77549
108.8  158.03125
108.7  173.96975
108.6  167.52048
108.5  170.09446
108.4  176.67205
108.3  177.74269
108.2  175.20219
108.1  178.86356
108  165.33979
107.9  177.17964
107.8  159.86611
107.7  152.04323
107.6  184.70424
107.5  173.06068
107.4  206.52071
107.3  195.16109
107.2  214.41087
107.1  248.16866
107  259.41374
106.9  288.39004
106.8  335.98841
106.7  374.78139
106.6  450.21487
106.5  528.00687
106.4  660.2295
106.3  794.66601
106.2  1015.5343
106.1  1205.31
106  1489.2562
105.9  1760.0909
105.8  2109.4041
105.7  2450.1074
105.6  2797.1135
105.5  3058.2498
105.4  3528.837
105.3  3806.975
105.2  4038.9075
105.1  4226.7238
105  4337.2053
104.9  4260.9953
104.8  4188.4999
104.7  4031.0541
104.6  3712.3077
104.5  3374.2328
104.4  3005.4377
104.3  2564.1108
104.2  2208.669
104.1  1836.7029
104  1516.7243
103.9  1192.0771
103.8  912.27091
103.7  747.2476
103.6  587.9145
103.5  517.78065
103.4  453.38245
103.3  398.46025
103.2  326.93956
103.1  316.94435
103  273.65926
102.9  243.16871
102.8  226.61924
102.7  213.13479
102.6  233.57305
102.5  218.15644
102.4  186.94008
102.3  184.11951
102.2  201.67851
102.1  195.39283
102  195.18171
101.9  196.22855
101.8  182.82864
101.7  200.55616
101.6  176.80893
101.5  181.12926
101.4  186.47476
101.3  195.26613
101.2  215.22921
101.1  250.34405
101  292.88588
100.9  406.612
100.8  517.46046
100.7  701.33841
100.6  907.14777
100.5  1106.2106
100.4  1167.4137
100.3  1122.2278
100.2  1143.6372
100.1  1280.6998
100  1486.0561
99.9  1682.3752
99.8  1654.5242
99.7  1352.6536
99.6  906.04483
99.5  531.57705
99.4  263.49803
99.3  181.30997
99.2  163.67725
99.1  142.48479
99  127.65302
98.9  133.18405
98.8  123.75579
98.7  116.26635
98.6  110.83453
98.5  113.33833
98.4  133.15641
98.3  107.19074
98.2  92.440661
98.1  114.49713
98  103.65323
97.9  107.12004
97.8  107.5879
97.7  114.94867
97.6  114.96818
97.5  106.01984
97.4  110.44976
97.3  107.41183
97.2  103.04933
97.1  117.54011
97  109.59005
96.9  96.149819
96.8  101.50217
96.7  123.65027
96.6  101.82055
96.5  109.93688
96.4  111.04239
96.3  116.02377
96.2  109.21214
96.1  107.07302
96  94.825899
95.9  120.47343
95.8  121.23817
95.7  115.76432
95.6  109.99801
95.5  115.46449
95.4  102.26994
95.3  94.654431
95.2  94.15432
95.1  107.74209
95  95.723381

# Group:             Ajuste altura
#
# Group:             Spectrum Group 5
#
# Region:            C1s
# Acquisition Date:  10/25/19 17:26:35 UTC
# Analysis Method:   XPS
# Analyzer:          Phoibos
# Analyzer Lens:     MediumArea:1.5kV
# Analyzer Slit:     5:7x20\B:open
# Scan Mode:         FixedAnalyzerTransmission
# Curves/Scan:       1
# Values/Curve:      71
# Dwell Time:        0.1
# Excitation Energy: 1486.71
# Binding Energy:    289
# Pass Energy:       10
# Bias Voltage:      90
# Detector Voltage:  1900
# Eff. Workfunction: 4.395
# Source:            Focus
# Comment:           
#
# Cycle: 0
# Number of Scans: 12
#
# Cycle: 0, Curve: 0
# Acquisition Date: 10/25/19 17:26:35 UTC
#
# ColumnLabels: energy counts/s
#
289  1014.9825
288.9  987.48976
288.8  988.0005
288.7  967.56936
288.6  1031.1217
288.5  1043.0362
288.4  1025.5009
288.3  1034.3833
288.2  1049.1233
288.1  1006.1084
288  1046.0939
287.9  1023.416
287.8  1047.6452
287.7  1082.8544
287.6  1079.6977
287.5  1090.2671
287.4  1104.1218
287.3  1132.9195
287.2  1205.9086
287.1  1182.9186
287  1264.7465
286.9  1263.4069
286.8  1316.4256
286.7  1390.9409
286.6  1445.4232
286.5  1467.5942
286.4  1515.1089
286.3  1545.404
286.2  1615.1762
286.1  1602.8423
286  1607.6507
285.9  1556.2178
285.8  1530.9603
285.7  1493.3645
285.6  1443.991
285.5  1352.9456
285.4  1337.8733
285.3  1235.0353
285.2  1152.9448
285.1  1144.1643
285  1158.201
284.9  1085.9758
284.8  1042.4368
284.7  1047.0568
284.6  994.69876
284.5  986.18276
284.4  994.01406
284.3  946.81346
284.2  987.54172
284.1  953.22439
284  948.26652
283.9  967.63411
283.8  984.90925
283.7  991.64476
283.6  968.03344
283.5  971.96721
283.4  998.45318
283.3  1007.9531
283.2  967.22176
283.1  931.52046
283  970.69945
282.9  1009.8949
282.8  943.97284
282.7  973.80267
282.6  958.85162
282.5  956.48791
282.4  945.53295
282.3  977.06002
282.2  941.07233
282.1  909.67828
282  985.7748

# Region:            O1s
# Acquisition Date:  10/25/19 17:37:58 UTC
# Analysis Method:   XPS
# Analyzer:          Phoibos
# Analyzer Lens:     MediumArea:1.5kV
# Analyzer Slit:     5:7x20\B:open
# Scan Mode:         FixedAnalyzerTransmission
# Curves/Scan:       1
# Values/Curve:      491
# Dwell Time:        0.1
# Excitation Energy: 1486.71
# Binding Energy:    570
# Pass Energy:       10
# Bias Voltage:      90
# Detector Voltage:  1900
# Eff. Workfunction: 4.395
# Source:            Focus
# Comment:           
#
# Cycle: 0
# Number of Scans: 12
#
# Cycle: 0, Curve: 0
# Acquisition Date: 10/25/19 17:37:58 UTC
#
# ColumnLabels: energy counts/s
#
570  2193.9618
569.9  2283.4123
569.8  2270.7908
569.7  2250.1011
569.6  2227.6383
569.5  2217.986
569.4  2138.3663
569.3  2133.7149
569.2  2239.8339
569.1  2254.5521
569  2145.4646
568.9  2202.0417
568.8  2269.4161
568.7  2201.7707
568.6  2221.6778
568.5  2181.4752
568.4  2175.6708
568.3  2208.7576
568.2  2162.7227
568.1  2165.0467
568  2149.3105
567.9  2224.9387
567.8  2236.233
567.7  2202.8931
567.6  2219.0854
567.5  2150.3976
567.4  2185.4426
567.3  2218.8922
567.2  2194.0476
567.1  2189.0239
567  2224.721
566.9  2247.6519
566.8  2259.4508
566.7  2300.9342
566.6  2293.1407
566.5  2284.894
566.4  2223.665
566.3  2274.1436
566.2  2303.9756
566.1  2245.5271
566  2304.7398
565.9  2299.673
565.8  2289.6274
565.7  2279.9134
565.6  2303.0867
565.5  2294.3391
565.4  2306.4214
565.3  2308.7061
565.2  2388.9885
565.1  2392.0373
565  2351.5615
564.9  2350.3402
564.8  2379.8708
564.7  2470.4808
564.6  2428.7953
564.5  2420.9536
564.4  2379.462
564.3  2389.7031
564.2  2458.8121
564.1  2429.0898
564  2437.38
563.9  2516.5868
563.8  2548.3184
563.7  2513.4017
563.6  2530.8624
563.5  2456.3866
563.4  2435.6063
563.3  2448.9504
563.2  2554.3407
563.1  2570.9113
563  2486.8292
562.9  2596.7144
562.8  2537.6693
562.7  2589.2856
562.6  2605.9255
562.5  2624.2318
562.4  2589.4803
562.3  2588.1237
562.2  2628.1017
562.1  2615.4847
562  2633.3497
561.9  2656.256
561.8  2598.7558
561.7  2704.6456
561.6  2671.9535
561.5  2557.5641
561.4  2573.1104
561.3  2654.7967
561.2  2718.8764
561.1  2596.5086
561  2657.7846
560.9  2742.2935
560.8  2785.5435
560.7  2689.8558
560.6  2595.1214
560.5  2735.6604
560.4  2743.7533
560.3  2726.291
560.2  2792.9877
560.1  2713.5545
560  2759.8381
559.9  2743.8462
559.8  2711.8972
559.7  2800.908
559.6  2787.7432
559.5  2803.4176
559.4  2872.3858
559.3  2753.0595
559.2  2762.3086
559.1  2720.6524
559  2850.1989
558.9  2810.5794
558.8  2819.8054
558.7  2802.5946
558.6  2786.145
558.5  2794.6298
558.4  2838.9681
558.3  2781.8687
558.2  2802.1239
558.1  2773.734
558  2862.2106
557.9  2857.3191
557.8  2959.142
557.7  2981.4313
557.6  2866.2277
557.5  2899.3573
557.4  2967.4085
557.3  2899.2378
557.2  2903.9755
557.1  2981.3693
557  3039.27
556.9  3049.8436
556.8  2969.6635
556.7  3034.8447
556.6  3056.767
556.5  2984.8795
556.4  2975.4323
556.3  2965.9573
556.2  2965.5049
556.1  3013.3294
556  2932.1859
555.9  2866.7956
555.8  2867.8023
555.7  2863.5703
555.6  2865.4814
555.5  2826.1526
555.4  2833.7736
555.3  2806.7358
555.2  2760.1817
555.1  2773.8407
555  2725.1923
554.9  2714.0065
554.8  2709.9116
554.7  2648.4396
554.6  2793.7117
554.5  2702.8743
554.4  2618.6359
554.3  2563.4758
554.2  2594.4564
554.1  2606.2156
554  2564.1383
553.9  2590.1547
553.8  2506.0717
553.7  2472.8944
553.6  2472.6627
553.5  2435.7996
553.4  2380.2338
553.3  2416.0355
553.2  2366.8206
553.1  2410.3948
553  2353.4321
552.9  2318.9369
552.8  2287.303
552.7  2299.6869
552.6  2253.2271
552.5  2282.0327
552.4  2273.8475
552.3  2198.6219
552.2  2205.5682
552.1  2226.387
552  2253.9918
551.9  2198.8325
551.8  2266.7681
551.7  2163.759
551.6  2205.9499
551.5  2163.9901
551.4  2121.2798
551.3  2182.543
551.2  2165.081
551.1  2119.6546
551  2161.9082
550.9  2034.6494
550.8  2087.4361
550.7  2149.8056
550.6  2096.9954
550.5  2131.0634
550.4  2161.1431
550.3  2123.0136
550.2  2107.7899
550.1  2143.7719
550  2171.6944
549.9  2141.5561
549.8  2103.336
549.7  2047.7737
549.6  2075.2777
549.5  2095.6045
549.4  2105.3237
549.3  2019.8434
549.2  2097.9785
549.1  2045.8642
549  2043.2267
548.9  2059.174
548.8  2000.9461
548.7  2016.6016
548.6  1988.9813
548.5  1998.4581
548.4  2025.0028
548.3  1972.3222
548.2  1983.7847
548.1  1937.0478
548  1930.9381
547.9  1935.1344
547.8  1907.2057
547.7  1849.7732
547.6  1887.241
547.5  1841.8208
547.4  1805.2403
547.3  1873.5767
547.2  1862.775
547.1  1841.8555
547  1795.7157
546.9  1754.5013
546.8  1782.6128
546.7  1809.3003
546.6  1802.4975
546.5  1791.6652
546.4  1824.3055
546.3  1782.3233
546.2  1777.1324
546.1  1790.4073
546  1831.0033
545.9  1810.8518
545.8  1779.5197
545.7  1708.3872
545.6  1649.1877
545.5  1698.6735
545.4  1649.1821
545.3  1644.0197
545.2  1584.9927
545.1  1528.7402
545  1528.9985
544.9  1489.5307
544.8  1494.3441
544.7  1492.4564
544.6  1395.6626
544.5  1424.0229
544.4  1404.9313
544.3  1402.4598
544.2  1360.6683
544.1  1313.9169
544  1231.9711
543.9  1257.8635
543.8  1258.4724
543.7  1235.0986
543.6  1197.5517
543.5  1153.3024
543.4  1167.061
543.3  1196.3766
543.2  1109.4935
543.1  1081.7391
543  1122.2042
542.9  1085.3458
542.8  1096.0261
542.7  1078.5466
542.6  1084.2812
542.5  1046.6893
542.4  1082.3458
542.3  1076.6355
542.2  1088.4495
542.1  1100.205
542  1070.842
541.9  1062.7579
541.8  1031.0306
541.7  1045.1275
541.6  1070.8485
541.5  1013.9272
541.4  972.55419
541.3  1021.5602
541.2  1022.474
541.1  1070.7508
541  1049.2579
540.9  1074.4235
540.8  1059.997
540.7  1053.1543
540.6  1033.6679
540.5  1041.2404
540.4  1047.5779
540.3  1012.7718
540.2  1056.1602
540.1  1038.1705
540  1017.3351
539.9  1000.2932
539.8  1013.6572
539.7  1046.4896
539.6  1033.5256
539.5  1058.2998
539.4  1059.539
539.3  1035.4508
539.2  1052.4845
539.1  1079.1512
539  1053.8056
538.9  1035.742
538.8  1068.4301
538.7  1073.2781
538.6  1055.3449
538.5  1099.4778
538.4  1071.3032
538.3  1060.8126
538.2  1048.9226
538.1  1076.1649
538  1037.755
537.9  1081.5164
537.8  1101.0677
537.7  1102.9591
537.6  1089.8286
537.5  1131.6679
537.4  1107.9427
537.3  1155.486
537.2  1211.0129
537.1  1208.6392
537  1239.008
536.9  1245.8104
536.8  1279.6439
536.7  1300.7934
536.6  1404.9455
536.5  1515.941
536.4  1640.6002
536.3  1748.299
536.2  1930.659
536.1  2201.131
536  2626.8318
535.9  2985.2119
535.8  3453.9495
535.7  4089.8275
535.6  4991.791
535.5  6055.7384
535.4  7262.0358
535.3  8828.7568
535.2  10329.83
535.1  12441.281
535  14584.841
534.9  16725.131
534.8  19093.113
534.7  21486.134
534.6  23461.564
534.5  25154.86
534.4  25914.364
534.3  25998.589
534.2  25854.788
534.1  24732.75
534  22971.007
533.9  20918.058
533.8  18556.335
533.7  15816.577
533.6  13136.008
533.5  10797.339
533.4  8709.8536
533.3  7016.4759
533.2  5637.3579
533.1  4464.1719
533  3692.1823
532.9  3146.6269
532.8  2708.168
532.7  2395.8892
532.6  2091.8098
532.5  1952.4081
532.4  1831.4157
532.3  1644.3068
532.2  1536.2694
532.1  1526.0976
532  1445.0869
531.9  1376.0333
531.8  1307.0355
531.7  1222.041
531.6  1220.1166
531.5  1252.1128
531.4  1171.5258
531.3  1159.9678
531.2  1219.3598
531.1  1118.0271
531  1125.1261
530.9  1123.399
530.8  1096.9298
530.7  1046.9397
530.6  1047.9577
530.5  1041.8117
530.4  1006.0634
530.3  1028.8726
530.2  1019.8514
530.1  1036.6418
530  1044.458
529.9  958.64816
529.8  1016.7729
529.7  1000.5282
529.6  1014.5961
529.5  993.82822
529.4  980.38336
529.3  989.80767
529.2  947.31039
529.1  984.28314
529  961.42352
528.9  954.5848
528.8  1001.0463
528.7  1028.6771
528.6  986.35815
528.5  964.52319
528.4  968.16194
528.3  978.8337
528.2  958.55331
528.1  950.30853
528  924.6314
527.9  967.32384
527.8  972.49276
527.7  968.23533
527.6  963.25481
527.5  972.8078
527.4  946.01718
527.3  916.27685
527.2  925.52498
527.1  898.43901
527  943.853
526.9  957.51891
526.8  938.27029
526.7  969.50658
526.6  941.6169
526.5  901.02518
526.4  918.12121
526.3  974.33517
526.2  933.2298
526.1  930.30423
526  898.47952
525.9  944.58335
525.8  925.17092
525.7  910.52642
525.6  950.47038
525.5  936.4837
525.4  954.07093
525.3  932.70507
525.2  910.81498
525.1  928.40428
525  917.59423
524.9  916.64942
524.8  926.2308
524.7  906.06573
524.6  953.17703
524.5  920.50865
524.4  953.49531
524.3  948.73723
524.2  918.2107
524.1  953.76705
524  902.57132
523.9  955.67015
523.8  968.1109
523.7  963.04212
523.6  928.54831
523.5  934.63823
523.4  942.69986
523.3  932.11876
523.2  969.50709
523.1  944.52682
523  888.92153
522.9  940.15927
522.8  924.96743
522.7  897.49201
522.6  908.05216
522.5  914.20915
522.4  929.03509
522.3  967.52734
522.2  949.04463
522.1  909.86261
522  907.77499
521.9  936.47528
521.8  889.31056
521.7  910.07678
521.6  925.14046
521.5  954.66308
521.4  969.10215
521.3  928.68434
521.2  955.9755
521.1  973.13933
521  966.89234

# Region:            Si2p
# Acquisition Date:  10/25/19 17:41:46 UTC
# Analysis Method:   XPS
# Analyzer:          Phoibos
# Analyzer Lens:     MediumArea:1.5kV
# Analyzer Slit:     5:7x20\B:open
# Scan Mode:         FixedAnalyzerTransmission
# Curves/Scan:       1
# Values/Curve:      151
# Dwell Time:        0.1
# Excitation Energy: 1486.71
# Binding Energy:    110
# Pass Energy:       10
# Bias Voltage:      90
# Detector Voltage:  1900
# Eff. Workfunction: 4.395
# Source:            Focus
# Comment:           
#
# Cycle: 0
# Number of Scans: 12
#
# Cycle: 0, Curve: 0
# Acquisition Date: 10/25/19 17:41:46 UTC
#
# ColumnLabels: energy counts/s
#
110  155.31103
109.9  162.73352
109.8  188.62748
109.7  163.79134
109.6  161.91351
109.5  166.66311
109.4  152.83578
109.3  155.49923
109.2  177.17932
109.1  150.96909
109  153.45977
108.9  163.18776
108.8  150.83211
108.7  166.58647
108.6  171.67696
108.5  152.54052
108.4  157.81605
108.3  139.8177
108.2  154.8256
108.1  155.91953
108  154.62111
107.9  169.46004
107.8  176.06546
107.7  178.12632
107.6  186.82829
107.5  181.77714
107.4  212.37141
107.3  202.90318
107.2  204.72432
107.1  211.94383
107  266.47425
106.9  282.33537
106.8  328.17422
106.7  387.79604
106.6  482.26125
106.5  567.97645
106.4  686.81301
106.3  843.28322
106.2  1040.3345
106.1  1291.1266
106  1522.4026
105.9  1734.9266
105.8  2064.3874
105.7  2426.6223
105.6  2850.1826
105.5  3140.6645
105.4  3484.805
105.3  3746.9066
105.2  4009.5497
105.1  4174.1173
105  4174.4135
104.9  4182.2192
104.8  4101.4002
104.7  3868.903
104.6  3653.3533
104.5  3225.4018
104.4  2893.1457
104.3  2522.3722
104.2  2048.0899
104.1  1721.8935
104  1409.2662
103.9  1160.0458
103.8  898.92573
103.7  721.4885
103.6  528.66287
103.5  471.62868
103.4  410.88346
103.3  340.14543
103.2  325.01156
103.1  315.00243
103  280.3674
102.9  244.14858
102.8  228.81141
102.7  208.68177
102.6  218.33334
102.5  210.81739
102.4  205.0935
102.3  195.33513
102.2  176.40395
102.1  172.34743
102  178.92998
101.9  175.38806
101.8  185.9528
101.7  172.03569
101.6  163.49303
101.5  165.36404
101.4  177.67239
101.3  187.11708
101.2  202.77592
101.1  235.29729
101  327.28813
100.9  410.61024
100.8  501.20908
100.7  659.03069
100.6  844.67019
100.5  946.39739
100.4  1087.8611
100.3  1062.2944
100.2  1039.5335
100.1  1110.4304
100  1330.916
99.9  1435.7469
99.8  1386.4041
99.7  1118.7632
99.6  721.3953
99.5  385.20074
99.4  221.10589
99.3  149.2749
99.2  119.58976
99.1  119.47441
99  138.14424
98.9  116.49584
98.8  104.95988
98.7  115.66124
98.6  118.46687
98.5  87.596908
98.4  90.042698
98.3  98.818594
98.2  98.693032
98.1  107.97227
98  102.17502
97.9  97.891081
97.8  111.61578
97.7  103.79328
97.6  101.42183
97.5  105.49361
97.4  98.230967
97.3  98.234809
97.2  112.64693
97.1  105.33602
97  98.419353
96.9  106.97654
96.8  113.91032
96.7  93.098373
96.6  107.53175
96.5  103.84572
96.4  88.350899
96.3  97.800811
96.2  103.45112
96.1  90.423714
96  108.65433
95.9  107.10895
95.8  98.196009
95.7  106.5148
95.6  102.64193
95.5  104.64189
95.4  99.44624
95.3  105.0335
95.2  109.4852
95.1  94.248628
95  107.04948

# Group:             Spectrum Group 15
#
# Region:            C1s
# Acquisition Date:  10/25/19 17:46:23 UTC
# Analysis Method:   XPS
# Analyzer:          Phoibos
# Analyzer Lens:     MediumArea:1.5kV
# Analyzer Slit:     5:7x20\B:open
# Scan Mode:         FixedAnalyzerTransmission
# Curves/Scan:       1
# Values/Curve:      71
# Dwell Time:        0.1
# Excitation Energy: 1486.71
# Binding Energy:    289
# Pass Energy:       10
# Bias Voltage:      90
# Detector Voltage:  1900
# Eff. Workfunction: 4.395
# Source:            Focus
# Comment:           
#
# Cycle: 0
# Number of Scans: 12
#
# Cycle: 0, Curve: 0
# Acquisition Date: 10/25/19 17:46:23 UTC
#
# ColumnLabels: energy counts/s
#
289  911.33884
288.9  919.59992
288.8  899.0661
288.7  955.20404
288.6  934.85366
288.5  920.31404
288.4  926.67802
288.3  944.29074
288.2  953.50859
288.1  975.12525
288  943.52518
287.9  976.85884
287.8  992.59373
287.7  993.80773
287.6  1009.6159
287.5  981.17958
287.4  1051.0559
287.3  1048.1849
287.2  1041.8239
287.1  1090.8268
287  1084.9377
286.9  1142.4754
286.8  1160.0171
286.7  1253.1355
286.6  1296.406
286.5  1283.4162
286.4  1337.7165
286.3  1391.9425
286.2  1422.5681
286.1  1461.6338
286  1481.9607
285.9  1456.369
285.8  1435.9851
285.7  1385.0541
285.6  1341.654
285.5  1249.9196
285.4  1171.1817
285.3  1092.7467
285.2  1069.5093
285.1  1037.492
285  984.27926
284.9  970.99673
284.8  892.70615
284.7  893.32961
284.6  889.54316
284.5  927.35443
284.4  891.59895
284.3  878.26832
284.2  861.71704
284.1  852.95074
284  826.28428
283.9  891.71802
283.8  886.07506
283.7  840.3727
283.6  888.7816
283.5  891.59724
283.4  818.78218
283.3  859.1661
283.2  875.11777
283.1  855.47584
283  870.28338
282.9  871.42671
282.8  891.29846
282.7  856.18556
282.6  837.85453
282.5  861.84702
282.4  895.49038
282.3  868.7036
282.2  852.63075
282.1  882.20929
282  885.74358

# Region:            O1s
# Acquisition Date:  10/25/19 17:57:46 UTC
# Analysis Method:   XPS
# Analyzer:          Phoibos
# Analyzer Lens:     MediumArea:1.5kV
# Analyzer Slit:     5:7x20\B:open
# Scan Mode:         FixedAnalyzerTransmission
# Curves/Scan:       1
# Values/Curve:      491
# Dwell Time:        0.1
# Excitation Energy: 1486.71
# Binding Energy:    570
# Pass Energy:       10
# Bias Voltage:      90
# Detector Voltage:  1900
# Eff. Workfunction: 4.395
# Source:            Focus
# Comment:           
#
# Cycle: 0
# Number of Scans: 12
#
# Cycle: 0, Curve: 0
# Acquisition Date: 10/25/19 17:57:46 UTC
#
# ColumnLabels: energy counts/s
#
570  1924.7913
569.9  1935.8714
569.8  1954.4096
569.7  1964.0922
569.6  1931.0972
569.5  1871.0069
569.4  1903.2336
569.3  1943.2759
569.2  1871.6937
569.1  1918.4589
569  1880.3084
568.9  1933.334
568.8  1916.6605
568.7  1859.7276
568.6  1861.8306
568.5  1899.4474
568.4  1862.5286
568.3  1891.7899
568.2  1765.0875
568.1  1879.3786
568  1911.9766
567.9  1898.4067
567.8  1900.5035
567.7  1916.5164
567.6  1829.7707
567.5  1826.0561
567.4  1898.391
567.3  1887.9657
567.2  1918.8563
567.1  1899.327
567  1894.3924
566.9  1908.2771
566.8  1906.8305
566.7  1966.5263
566.6  1929.7693
566.5  1860.0576
566.4  1853.7288
566.3  1948.3998
566.2  1925.4535
566.1  1956.4612
566  2026.7575
565.9  1977.8943
565.8  2013.2674
565.7  1978.0502
565.6  2043.2731
565.5  2039.5474
565.4  2056.5591
565.3  2148.635
565.2  1996.2354
565.1  2061.0135
565  2067.5189
564.9  1998.1254
564.8  2048.3216
564.7  2091.3871
564.6  2021.5765
564.5  2132.592
564.4  2044.1092
564.3  2025.9155
564.2  2094.7597
564.1  2114.1038
564  2159.7279
563.9  2133.5464
563.8  2098.7408
563.7  2198.3917
563.6  2132.0829
563.5  2195.2981
563.4  2171.5707
563.3  2286.1792
563.2  2171.3339
563.1  2183.5182
563  2219.6918
562.9  2180.0147
562.8  2193.976
562.7  2155.4466
562.6  2220.6385
562.5  2282.7676
562.4  2193.6836
562.3  2294.5882
562.2  2284.0231
562.1  2321.6103
562  2316.4721
561.9  2285.5249
561.8  2256.0352
561.7  2221.6973
561.6  2267.7895
561.5  2346.2449
561.4  2332.0877
561.3  2353.7945
561.2  2354.7449
561.1  2284.052
561  2347.7205
560.9  2319.6131
560.8  2413.9025
560.7  2329.5858
560.6  2370.3145
560.5  2332.7494
560.4  2370.1875
560.3  2430.2167
560.2  2393.17
560.1  2391.7241
560  2397.7829
559.9  2383.9123
559.8  2390.5444
559.7  2437.554
559.6  2406.8664
559.5  2419.7607
559.4  2303.2693
559.3  2363.7771
559.2  2357.1329
559.1  2364.2763
559  2437.0674
558.9  2447.4754
558.8  2393.8468
558.7  2398.7906
558.6  2466.868
558.5  2460.7775
558.4  2410.7561
558.3  2423.8323
558.2  2493.0813
558.1  2484.5651
558  2488.6006
557.9  2510.9642
557.8  2386.9636
557.7  2481.4425
557.6  2562.5029
557.5  2560.9437
557.4  2555.2991
557.3  2483.1251
557.2  2579.0917
557.1  2582.482
557  2614.889
556.9  2626.9815
556.8  2679.5631
556.7  2632.314
556.6  2678.5239
556.5  2719.7957
556.4  2657.6458
556.3  2614.6254
556.2  2604.5168
556.1  2621.9116
556  2535.0658
555.9  2562.5909
555.8  2569.0254
555.7  2511.9395
555.6  2514.7835
555.5  2485.2275
555.4  2450.1656
555.3  2396.0383
555.2  2358.4142
555.1  2378.6533
555  2390.1481
554.9  2286.0151
554.8  2282.0827
554.7  2315.4385
554.6  2264.9812
554.5  2274.614
554.4  2257.4447
554.3  2273.9332
554.2  2256.0312
554.1  2255.5564
554  2175.7037
553.9  2193.7408
553.8  2188.536
553.7  2186.1944
553.6  2208.1064
553.5  2105.2341
553.4  2143.3794
553.3  2129.9449
553.2  2108.3506
553.1  2042.8607
553  2028.7967
552.9  2067.6845
552.8  2008.0555
552.7  1966.9199
552.6  1932.4503
552.5  2003.3978
552.4  1950.6082
552.3  1920.8692
552.2  1955.333
552.1  1913.3152
552  1876.3073
551.9  1887.4737
551.8  1921.4787
551.7  1894.7274
551.6  1874.4823
551.5  1924.0367
551.4  1880.9631
551.3  1906.7815
551.2  1838.3394
551.1  1857.2177
551  1847.5357
550.9  1877.4717
550.8  1858.0523
550.7  1801.1351
550.6  1789.2372
550.5  1836.7238
550.4  1823.4777
550.3  1848.5431
550.2  1874.171
550.1  1889.3849
550  1877.2635
549.9  1827.9728
549.8  1842.6942
549.7  1811.5518
549.6  1834.2115
549.5  1763.4156
549.4  1786.3758
549.3  1837.5984
549.2  1821.7823
549.1  1764.9544
549  1740.3344
548.9  1790.5652
548.8  1823.499
548.7  1741.9328
548.6  1780.7406
548.5  1726.4057
548.4  1660.135
548.3  1709.9802
548.2  1686.8551
548.1  1717.0478
548  1668.1817
547.9  1683.7899
547.8  1677.0553
547.7  1656.4461
547.6  1618.7006
547.5  1612.6293
547.4  1585.8704
547.3  1629.2189
547.2  1610.7157
547.1  1577.4521
547  1630.5172
546.9  1613.8011
546.8  1535.951
546.7  1556.7119
546.6  1599.4548
546.5  1564.9824
546.4  1586.0111
546.3  1550.464
546.2  1538.8413
546.1  1532.8303
546  1541.9224
545.9  1515.8028
545.8  1492.0217
545.7  1467.0025
545.6  1459.6703
545.5  1426.0368
545.4  1490.7108
545.3  1435.6074
545.2  1386.1518
545.1  1330.5088
545  1307.9073
544.9  1282.0498
544.8  1254.719
544.7  1282.4848
544.6  1251.6687
544.5  1257.0125
544.4  1226.9301
544.3  1231.9817
544.2  1136.5829
544.1  1146.7359
544  1081.5488
543.9  1058.3258
543.8  1086.6299
543.7  1035.4699
543.6  1040.3256
543.5  1012.5727
543.4  966.68359
543.3  986.85319
543.2  999.86918
543.1  928.71018
543  920.18834
542.9  959.05922
542.8  972.13574
542.7  955.32796
542.6  989.54502
542.5  963.35751
542.4  921.69939
542.3  921.31668
542.2  981.96197
542.1  949.52583
542  904.6162
541.9  877.27091
541.8  898.96108
541.7  936.3739
541.6  947.04484
541.5  949.05646
541.4  947.39182
541.3  902.71503
541.2  913.49416
541.1  937.8408
541  930.05652
540.9  908.28496
540.8  930.96892
540.7  894.97611
540.6  902.61355
540.5  917.62071
540.4  909.01105
540.3  919.25283
540.2  916.45596
540.1  939.1232
540  919.84159
539.9  924.04143
539.8  934.70076
539.7  900.80207
539.6  890.6055
539.5  923.50262
539.4  936.14525
539.3  934.09269
539.2  907.03081
539.1  903.13696
539  905.88556
538.9  896.61792
538.8  894.0906
538.7  878.08152
538.6  864.76405
538.5  925.0316
538.4  964.64185
538.3  971.49347
538.2  971.96354
538.1  936.14985
538  957.11254
537.9  961.363
537.8  957.82625
537.7  956.14738
537.6  968.87475
537.5  955.91619
537.4  997.41754
537.3  1014.9541
537.2  985.9854
537.1  1039.4816
537  1088.7907
536.9  1056.7659
536.8  1101.9028
536.7  1121.8382
536.6  1193.8661
536.5  1266.6494
536.4  1351.8359
536.3  1476.1878
536.2  1635.2879
536.1  1833.8862
536  2094.447
535.9  2348.3283
535.8  2717.1302
535.7  3140.1894
535.6  3888.7639
535.5  4696.5332
535.4  5548.4364
535.3  6666.7645
535.2  8193.3047
535.1  9786.6484
535  11437.187
534.9  13363.559
534.8  15382.149
534.7  17295.731
534.6  19297.751
534.5  20941.473
534.4  21829.347
534.3  22811.166
534.2  22691.94
534.1  22078.328
534  20678.951
533.9  19183.758
533.8  17372.652
533.7  14951.817
533.6  12668.519
533.5  10578.635
533.4  8577.1083
533.3  6827.5339
533.2  5469.2879
533.1  4411.8236
533  3625.757
532.9  2995.6188
532.8  2518.4787
532.7  2156.8278
532.6  1874.0223
532.5  1803.4656
532.4  1624.4654
532.3  1495.1878
532.2  1328.7898
532.1  1284.8552
532  1229.9664
531.9  1234.3948
531.8  1137.4631
531.7  1095.5188
531.6  1049.5859
531.5  1041.1476
531.4  1036.0809
531.3  1021.0148
531.2  1002.8007
531.1  1013.5475
531  912.92001
530.9  914.24684
530.8  949.43907
530.7  921.79977
530.6  910.64801
530.5  925.69666
530.4  927.10037
530.3  920.00423
530.2  867.01082
530.1  864.92048
530  877.7286
529.9  877.71285
529.8  909.8335
529.7  844.45823
529.6  875.10088
529.5  868.38938
529.4  867.03976
529.3  853.90752
529.2  869.09204
529.1  860.91896
529  820.34716
528.9  861.72061
528.8  882.40798
528.7  870.66775
528.6  866.32362
528.5  887.26165
528.4  866.11544
528.3  829.52643
528.2  805.32492
528.1  824.84951
528  806.23699
527.9  790.611
527.8  811.91582
527.7  853.02668
527.6  870.47103
527.5  866.88926
527.4  835.88708
527.3  820.02985
527.2  809.93013
527.1  812.66252
527  805.4581
526.9  812.40276
526.8  806.0613
526.7  818.94303
526.6  831.80613
526.5  839.1765
526.4  854.76286
526.3  839.90044
526.2  838.47376
526.1  821.67451
526  807.63202
525.9  837.01702
525.8  813.53722
525.7  775.79013
525.6  789.28648
525.5  815.71093
525.4  824.54234
525.3  831.82528
525.2  817.36525
525.1  819.8135
525  828.26738
524.9  820.49061
524.8  799.99567
524.7  808.98083
524.6  815.68356
524.5  802.79654
524.4  797.43341
524.3  803.17692
524.2  808.72787
524.1  808.72944
524  811.52431
523.9  817.31906
523.8  820.80389
523.7  874.95008
523.6  835.51654
523.5  842.42352
523.4  846.25292
523.3  793.31505
523.2  779.23261
523.1  829.12641
523  806.25801
522.9  805.51953
522.8  834.27874
522.7  799.46746
522.6  820.80901
522.5  802.19205
522.4  797.48989
522.3  830.62023
522.2  814.95712
522.1  848.44268
522  829.525
521.9  806.07644
521.8  785.93813
521.7  789.72635
521.6  789.04958
521.5  810.21273
521.4  822.05357
521.3  806.35292
521.2  848.08507
521.1  826.69051
521  827.50889

# Region:            Si2p
# Acquisition Date:  10/25/19 18:01:34 UTC
# Analysis Method:   XPS
# Analyzer:          Phoibos
# Analyzer Lens:     MediumArea:1.5kV
# Analyzer Slit:     5:7x20\B:open
# Scan Mode:         FixedAnalyzerTransmission
# Curves/Scan:       1
# Values/Curve:      151
# Dwell Time:        0.1
# Excitation Energy: 1486.71
# Binding Energy:    110
# Pass Energy:       10
# Bias Voltage:      90
# Detector Voltage:  1900
# Eff. Workfunction: 4.395
# Source:            Focus
# Comment:           
#
# Cycle: 0
# Number of Scans: 12
#
# Cycle: 0, Curve: 0
# Acquisition Date: 10/25/19 18:01:34 UTC
#
# ColumnLabels: energy counts/s
#
110  137.20972
109.9  155.9331
109.8  138.56456
109.7  150.36438
109.6  141.86382
109.5  154.74176
109.4  145.63553
109.3  144.49632
109.2  145.23953
109.1  161.71689
109  151.32538
108.9  129.23381
108.8  146.88945
108.7  142.70778
108.6  145.76151
108.5  125.57948
108.4  146.23305
108.3  136.65851
108.2  154.83678
108.1  137.99999
108  132.34918
107.9  138.09502
107.8  139.25524
107.7  143.73908
107.6  164.52023
107.5  155.4013
107.4  161.15264
107.3  171.4289
107.2  179.49982
107.1  191.86685
107  198.75965
106.9  239.8918
106.8  255.35485
106.7  322.81942
106.6  368.95034
106.5  450.43423
106.4  543.81245
106.3  677.73244
106.2  785.17679
106.1  1006.4066
106  1165.826
105.9  1411.8657
105.8  1725.9031
105.7  2011.3639
105.6  2279.678
105.5  2564.0037
105.4  2838.2602
105.3  3126.3354
105.2  3327.9278
105.1  3543.8324
105  3711.4925
104.9  3672.9266
104.8  3664.7552
104.7  3600.2969
104.6  3408.0349
104.5  3091.236
104.4  2727.1223
104.3  2406.0832
104.2  2074.6537
104.1  1754.7171
104  1436.228
103.9  1135.3636
103.8  923.41959
103.7  765.04082
103.6  599.03463
103.5  456.2463
103.4  391.89226
103.3  335.8175
103.2  278.94262
103.1  247.65455
103  235.57467
102.9  230.42318
102.8  198.07927
102.7  196.16458
102.6  194.82386
102.5  194.47975
102.4  195.46997
102.3  179.315
102.2  153.72525
102.1  158.23593
102  150.90672
101.9  135.58884
101.8  148.01931
101.7  145.68631
101.6  138.75332
101.5  150.75497
101.4  165.44479
101.3  180.69207
101.2  172.55588
101.1  211.40464
101  254.04393
100.9  329.89667
100.8  451.27001
100.7  578.29736
100.6  759.83194
100.5  895.40769
100.4  967.63042
100.3  948.61447
100.2  964.14776
100.1  1036.1065
100  1225.1725
99.9  1385.6591
99.8  1382.0486
99.7  1167.4237
99.6  784.89182
99.5  449.77987
99.4  241.34315
99.3  141.7235
99.2  115.82233
99.1  113.91915
99  103.96173
98.9  102.22876
98.8  99.647887
98.7  83.526396
98.6  103.45821
98.5  104.78848
98.4  97.613313
98.3  103.40895
98.2  94.356248
98.1  87.812414
98  97.880634
97.9  105.81455
97.8  104.62534
97.7  95.483221
97.6  103.25375
97.5  92.383563
97.4  94.039233
97.3  81.642896
97.2  78.296142
97.1  89.927835
97  94.735787
96.9  98.093105
96.8  91.203218
96.7  80.397677
96.6  95.296345
96.5  84.546737
96.4  98.536747
96.3  103.34126
96.2  82.438448
96.1  78.736056
96  90.163955
95.9  98.767358
95.8  87.055646
95.7  100.57541
95.6  90.821906
95.5  98.016902
95.4  89.391144
95.3  89.045674
95.2  88.00017
95.1  86.686323
95  90.575614

# Group:             Spectrum Group 25
#
# Region:            C1s
# Acquisition Date:  10/25/19 18:11:28 UTC
# Analysis Method:   XPS
# Analyzer:          Phoibos
# Analyzer Lens:     MediumArea:1.5kV
# Analyzer Slit:     5:7x20\B:open
# Scan Mode:         FixedAnalyzerTransmission
# Curves/Scan:       1
# Values/Curve:      71
# Dwell Time:        0.1
# Excitation Energy: 1486.71
# Binding Energy:    289
# Pass Energy:       10
# Bias Voltage:      90
# Detector Voltage:  1900
# Eff. Workfunction: 4.395
# Source:            Focus
# Comment:           
#
# Cycle: 0
# Number of Scans: 12
#
# Cycle: 0, Curve: 0
# Acquisition Date: 10/25/19 18:11:28 UTC
#
# ColumnLabels: energy counts/s
#
289  771.52948
288.9  815.03624
288.8  823.52944
288.7  798.28865
288.6  820.72374
288.5  784.81092
288.4  765.416
288.3  831.20883
288.2  823.39619
288.1  838.90206
288  849.99052
287.9  824.01663
287.8  836.28513
287.7  848.20354
287.6  903.67306
287.5  859.11055
287.4  945.65779
287.3  889.22546
287.2  927.75261
287.1  992.15147
287  1004.2335
286.9  986.47947
286.8  1018.8564
286.7  1068.9045
286.6  1147.2476
286.5  1181.8874
286.4  1216.7675
286.3  1242.0558
286.2  1254.4688
286.1  1300.7975
286  1323.4863
285.9  1303.8153
285.8  1277.2735
285.7  1213.2126
285.6  1153.7474
285.5  1114.0539
285.4  1086.1692
285.3  1078.9948
285.2  946.62122
285.1  923.0629
285  892.9777
284.9  866.73977
284.8  827.64353
284.7  832.84052
284.6  825.27226
284.5  777.78558
284.4  736.81037
284.3  783.05623
284.2  821.63609
284.1  806.91027
284  804.55149
283.9  737.45794
283.8  774.44248
283.7  762.29328
283.6  791.84506
283.5  788.9126
283.4  772.64912
283.3  792.22531
283.2  786.22283
283.1  799.6604
283  744.44585
282.9  737.23561
282.8  719.97769
282.7  750.70048
282.6  788.01682
282.5  762.70477
282.4  774.63796
282.3  785.42437
282.2  735.76669
282.1  779.20999
282  747.48082

# Region:            O1s
# Acquisition Date:  10/25/19 18:22:51 UTC
# Analysis Method:   XPS
# Analyzer:          Phoibos
# Analyzer Lens:     MediumArea:1.5kV
# Analyzer Slit:     5:7x20\B:open
# Scan Mode:         FixedAnalyzerTransmission
# Curves/Scan:       1
# Values/Curve:      491
# Dwell Time:        0.1
# Excitation Energy: 1486.71
# Binding Energy:    570
# Pass Energy:       10
# Bias Voltage:      90
# Detector Voltage:  1900
# Eff. Workfunction: 4.395
# Source:            Focus
# Comment:           
#
# Cycle: 0
# Number of Scans: 12
#
# Cycle: 0, Curve: 0
# Acquisition Date: 10/25/19 18:22:51 UTC
#
# ColumnLabels: energy counts/s
#
570  1654.2956
569.9  1601.9538
569.8  1655.2126
569.7  1590.2204
569.6  1628.9161
569.5  1620.6204
569.4  1666.5258
569.3  1610.4929
569.2  1618.834
569.1  1621.7105
569  1644.7265
568.9  1660.8477
568.8  1617.7493
568.7  1563.5231
568.6  1557.9381
568.5  1617.43
568.4  1664.1294
568.3  1611.7634
568.2  1556.4423
568.1  1514.2835
568  1569.1067
567.9  1596.043
567.8  1620.9513
567.7  1611.9673
567.6  1657.7785
567.5  1588.0154
567.4  1592.4519
567.3  1624.1629
567.2  1569.3755
567.1  1590.2066
567  1570.312
566.9  1597.7595
566.8  1614.4557
566.7  1635.3136
566.6  1649.9851
566.5  1665.4308
566.4  1740.4644
566.3  1683.1166
566.2  1638.1874
566.1  1661.2216
566  1744.3414
565.9  1706.3043
565.8  1675.7085
565.7  1654.7445
565.6  1638.889
565.5  1700.2981
565.4  1765.3076
565.3  1769.0398
565.2  1706.8461
565.1  1705.9696
565  1752.8692
564.9  1672.6813
564.8  1754.6374
564.7  1768.1866
564.6  1736.0781
564.5  1840.3164
564.4  1785.4271
564.3  1786.372
564.2  1837.6565
564.1  1791.8184
564  1810.3057
563.9  1852.3953
563.8  1775.4344
563.7  1803.5592
563.6  1773.1052
563.5  1812.8013
563.4  1780.1142
563.3  1771.8693
563.2  1878.0125
563.1  1863.1454
563  1858.0435
562.9  1788.111
562.8  1883.6478
562.7  1885.4278
562.6  1848.3756
562.5  1848.9153
562.4  1951.9874
562.3  1936.9997
562.2  1846.1495
562.1  1877.4498
562  1902.2386
561.9  1930.2252
561.8  1931.9593
561.7  1957.7991
561.6  1947.3729
561.5  1990.5723
561.4  2004.9749
561.3  2026.4676
561.2  2007.1745
561.1  2085.8399
561  2062.6408
560.9  2082.716
560.8  2073.4174
560.7  2050.8669
560.6  1958.4683
560.5  2048.2682
560.4  1992.653
560.3  2064.0628
560.2  2036.8726
560.1  2039.7858
560  2041.5565
559.9  2041.7347
559.8  2033.5639
559.7  2033.9085
559.6  2055.5332
559.5  2020.0485
559.4  2049.5725
559.3  2057.75
559.2  2066.7442
559.1  2056.3592
559  2060.6107
558.9  2077.5722
558.8  2082.723
558.7  2136.7341
558.6  2103.3588
558.5  2110.2015
558.4  2098.5943
558.3  2039.0049
558.2  2017.6003
558.1  2059.4839
558  2098.4268
557.9  2098.1346
557.8  2106.9573
557.7  2132.8678
557.6  2186.1296
557.5  2179.7428
557.4  2157.5297
557.3  2252.1547
557.2  2179.876
557.1  2219.5263
557  2268.6719
556.9  2246.7074
556.8  2214.9267
556.7  2250.1854
556.6  2208.1483
556.5  2304.8388
556.4  2311.1098
556.3  2310.1676
556.2  2230.3017
556.1  2226.4307
556  2240.5348
555.9  2159.2775
555.8  2241.7132
555.7  2261.1616
555.6  2177.8791
555.5  2161.1028
555.4  2079.7726
555.3  2047.1739
555.2  2071.5476
555.1  2055.6687
555  1933.1482
554.9  1961.9998
554.8  1943.337
554.7  1969.0478
554.6  1993.0534
554.5  1946.6063
554.4  1938.9922
554.3  1936.0341
554.2  1896.9275
554.1  1922.4652
554  1889.9894
553.9  1870.0646
553.8  1827.5034
553.7  1883.5787
553.6  1839.2843
553.5  1854.3733
553.4  1803.7777
553.3  1832.2647
553.2  1758.9557
553.1  1765.5985
553  1749.6496
552.9  1753.993
552.8  1728.4174
552.7  1646.0183
552.6  1699.7995
552.5  1662.2961
552.4  1697.9903
552.3  1685.2083
552.2  1622.703
552.1  1631.0004
552  1633.9813
551.9  1599.8291
551.8  1629.0341
551.7  1608.9374
551.6  1639.929
551.5  1601.7527
551.4  1601.8977
551.3  1535.0267
551.2  1563.7255
551.1  1636.1927
551  1599.2415
550.9  1568.2668
550.8  1596.3164
550.7  1530.6743
550.6  1497.4746
550.5  1481.113
550.4  1586.2174
550.3  1575.9576
550.2  1576.8517
550.1  1673.6339
550  1558.0865
549.9  1576.6462
549.8  1590.5582
549.7  1612.3064
549.6  1593.9417
549.5  1554.7246
549.4  1548.233
549.3  1563.0643
549.2  1543.0947
549.1  1536.6528
549  1518.5978
548.9  1497.1208
548.8  1476.3061
548.7  1536.4002
548.6  1493.4624
548.5  1455.381
548.4  1474.9959
548.3  1451.092
548.2  1465.7771
548.1  1475.6368
548  1417.9673
547.9  1443.5288
547.8  1411.3813
547.7  1425.358
547.6  1429.5145
547.5  1397.4892
547.4  1361.4281
547.3  1370.199
547.2  1384.883
547.1  1367.3833
547  1375.7993
546.9  1358.4553
546.8  1344.4234
546.7  1394.9068
546.6  1359.6184
546.5  1310.5857
546.4  1334.1719
546.3  1308.9937
546.2  1317.5102
546.1  1362.1061
546  1379.6948
545.9  1306.2379
545.8  1293.8146
545.7  1291.1746
545.6  1286.6455
545.5  1285.9286
545.4  1234.3472
545.3  1257.3787
545.2  1209.6882
545.1  1203.9641
545  1130.9662
544.9  1151.0318
544.8  1151.8969
544.7  1162.3949
544.6  1128.2355
544.5  1071.3778
544.4  1029.5789
544.3  1027.0916
544.2  1015.3725
544.1  985.43231
544  917.37735
543.9  942.59377
543.8  925.17793
543.7  869.27167
543.6  933.88243
543.5  928.82646
543.4  870.89805
543.3  895.18725
543.2  867.31382
543.1  873.25752
543  839.30396
542.9  831.71465
542.8  814.80395
542.7  823.90374
542.6  828.80434
542.5  832.40563
542.4  788.33189
542.3  798.87309
542.2  795.98767
542.1  816.94934
542  833.59173
541.9  783.22558
541.8  781.09028
541.7  803.89809
541.6  805.85294
541.5  772.36421
541.4  812.63103
541.3  797.5743
541.2  785.63724
541.1  782.31744
541  799.19133
540.9  806.01764
540.8  765.14757
540.7  803.02128
540.6  771.30071
540.5  816.77254
540.4  826.93343
540.3  766.66207
540.2  758.28656
540.1  801.61955
540  802.19647
539.9  779.75906
539.8  783.63483
539.7  773.32746
539.6  785.89961
539.5  774.41933
539.4  771.91533
539.3  773.6937
539.2  797.6057
539.1  787.56499
539  793.50047
538.9  847.74768
538.8  760.77543
538.7  784.52901
538.6  802.01722
538.5  769.79207
538.4  821.08866
538.3  810.74438
538.2  796.3319
538.1  838.90859
538  819.50307
537.9  850.31842
537.8  803.89138
537.7  805.90137
537.6  808.12125
537.5  867.68192
537.4  871.16447
537.3  867.57664
537.2  891.19643
537.1  873.90491
537  896.12738
536.9  901.04266
536.8  902.35864
536.7  916.65386
536.6  962.04682
536.5  1037.088
536.4  1099.8981
536.3  1146.1534
536.2  1222.0403
536.1  1405.209
536  1554.1063
535.9  1753.1283
535.8  2042.1254
535.7  2394.0494
535.6  2875.4933
535.5  3436.8894
535.4  4115.8416
535.3  5158.0926
535.2  6258.6954
535.1  7648.9195
535  9216.9887
534.9  10834.468
534.8  12450.2
534.7  14270.439
534.6  16184.031
534.5  17641.971
534.4  18691.124
534.3  19508.76
534.2  19910.868
534.1  19731.649
534  18642.622
533.9  17224.265
533.8  15439.942
533.7  13551.31
533.6  11440.2
533.5  9802.9376
533.4  7842.3376
533.3  6320.3174
533.2  5084.9341
533.1  4148.0745
533  3265.6192
532.9  2714.9859
532.8  2241.4771
532.7  1974.4569
532.6  1717.0668
532.5  1541.7086
532.4  1399.8639
532.3  1337.3823
532.2  1254.5011
532.1  1212.6886
532  1077.9412
531.9  1072.7401
531.8  1038.7526
531.7  1017.6036
531.6  982.27846
531.5  904.48809
531.4  890.47905
531.3  892.21636
531.2  841.04294
531.1  879.36776
531  896.38266
530.9  834.68914
530.8  803.3992
530.7  785.10774
530.6  778.31545
530.5  787.44833
530.4  789.88926
530.3  772.22131
530.2  753.09324
530.1  760.10735
530  781.87549
529.9  759.16249
529.8  740.46081
529.7  773.77133
529.6  746.15293
529.5  777.42223
529.4  752.50882
529.3  719.3803
529.2  743.27246
529.1  771.53079
529  762.04369
528.9  732.56159
528.8  719.13855
528.7  709.95936
528.6  737.56096
528.5  709.54043
528.4  699.80658
528.3  699.35053
528.2  694.84377
528.1  720.56487
528  724.53175
527.9  729.84327
527.8  738.85496
527.7  754.28388
527.6  727.33223
527.5  723.02177
527.4  751.51527
527.3  734.31018
527.2  706.57865
527.1  719.30718
527  704.14456
526.9  655.29062
526.8  687.28869
526.7  682.09858
526.6  702.61302
526.5  682.63447
526.4  696.53278
526.3  694.6138
526.2  690.19785
526.1  669.34703
526  689.58579
525.9  697.43344
525.8  652.79995
525.7  662.33295
525.6  705.80026
525.5  752.29731
525.4  728.95886
525.3  690.06504
525.2  675.53643
525.1  709.41537
525  685.536
524.9  681.16321
524.8  710.27219
524.7  723.55488
524.6  737.2555
524.5  721.51992
524.4  679.0941
524.3  664.72653
524.2  679.50691
524.1  671.60832
524  686.27496
523.9  697.15352
523.8  683.47424
523.7  701.42319
523.6  693.77078
523.5  670.91278
523.4  699.28842
523.3  676.38001
523.2  679.54833
523.1  679.29992
523  709.06462
522.9  719.69299
522.8  724.00159
522.7  725.98171
522.6  672.80083
522.5  701.19343
522.4  702.79905
522.3  726.14975
522.2  708.39152
522.1  697.78153
522  732.04932
521.9  640.57143
521.8  673.20874
521.7  696.28039
521.6  701.67282
521.5  712.49723
521.4  662.14571
521.3  647.48849
521.2  683.23548
521.1  690.81404
521  681.80096

# Region:            Si2p
# Acquisition Date:  10/25/19 18:26:40 UTC
# Analysis Method:   XPS
# Analyzer:          Phoibos
# Analyzer Lens:     MediumArea:1.5kV
# Analyzer Slit:     5:7x20\B:open
# Scan Mode:         FixedAnalyzerTransmission
# Curves/Scan:       1
# Values/Curve:      151
# Dwell Time:        0.1
# Excitation Energy: 1486.71
# Binding Energy:    110
# Pass Energy:       10
# Bias Voltage:      90
# Detector Voltage:  1900
# Eff. Workfunction: 4.395
# Source:            Focus
# Comment:           
#
# Cycle: 0
# Number of Scans: 12
#
# Cycle: 0, Curve: 0
# Acquisition Date: 10/25/19 18:26:40 UTC
#
# ColumnLabels: energy counts/s
#
110  126.40232
109.9  136.68951
109.8  128.38449
109.7  116.02008
109.6  116.52858
109.5  132.82723
109.4  126.98103
109.3  126.12013
109.2  116.11732
109.1  144.02903
109  131.44527
108.9  118.18305
108.8  126.02411
108.7  121.82884
108.6  124.52001
108.5  129.3844
108.4  117.78701
108.3  130.46287
108.2  135.99806
108.1  127.03897
108  116.21345
107.9  122.86092
107.8  137.36402
107.7  137.31363
107.6  141.92021
107.5  147.86968
107.4  148.82354
107.3  140.53905
107.2  162.8182
107.1  170.78262
107  161.72816
106.9  167.80188
106.8  203.47609
106.7  240.06032
106.6  284.10236
106.5  336.84109
106.4  394.48445
106.3  498.91758
106.2  617.70162
106.1  728.13238
106  925.33906
105.9  1096.1877
105.8  1297.8359
105.7  1525.3662
105.6  1789.7175
105.5  2067.5219
105.4  2355.0086
105.3  2592.7627
105.2  2742.1114
105.1  3006.5201
105  3135.8967
104.9  3217.1779
104.8  3206.1697
104.7  3158.1239
104.6  2943.5075
104.5  2771.2662
104.4  2577.28
104.3  2240.5118
104.2  1972.5458
104.1  1666.2802
104  1378.9006
103.9  1108.8388
103.8  856.69532
103.7  703.7195
103.6  553.24128
103.5  450.02392
103.4  348.87885
103.3  313.34143
103.2  287.19671
103.1  252.22173
103  231.67061
102.9  204.68538
102.8  201.52557
102.7  186.34254
102.6  188.91603
102.5  170.08562
102.4  163.74111
102.3  147.33057
102.2  135.51247
102.1  161.73751
102  144.83151
101.9  136.69438
101.8  120.05769
101.7  127.9016
101.6  145.61815
101.5  143.43122
101.4  158.78387
101.3  166.11215
101.2  155.21977
101.1  177.34578
101  235.62275
100.9  265.9074
100.8  378.1172
100.7  475.1913
100.6  665.98265
100.5  797.12465
100.4  834.58814
100.3  885.09361
100.2  867.74068
100.1  917.75799
100  1107.8742
99.9  1244.2317
99.8  1304.3852
99.7  1122.5279
99.6  775.4672
99.5  473.68413
99.4  255.53795
99.3  148.03113
99.2  120.64989
99.1  107.43599
99  89.40857
98.9  84.675055
98.8  95.648871
98.7  88.849572
98.6  84.675127
98.5  90.308008
98.4  85.361021
98.3  78.286784
98.2  95.1484
98.1  84.885447
98  66.131944
97.9  72.767215
97.8  78.353292
97.7  82.249677
97.6  71.174955
97.5  63.664353
97.4  83.297119
97.3  86.855524
97.2  77.847313
97.1  74.920797
97  74.244276
96.9  87.925108
96.8  79.863737
96.7  80.153995
96.6  77.439835
96.5  75.068596
96.4  76.836559
96.3  68.074989
96.2  65.702588
96.1  73.528633
96  88.720686
95.9  78.60147
95.8  79.831969
95.7  96.425399
95.6  90.016389
95.5  82.079353
95.4  72.840701
95.3  83.82791
95.2  77.676056
95.1  67.325433
95  74.219148

# Group:             Spectrum Group 35
#
# Region:            C1s
# Acquisition Date:  10/25/19 18:37:03 UTC
# Analysis Method:   XPS
# Analyzer:          Phoibos
# Analyzer Lens:     MediumArea:1.5kV
# Analyzer Slit:     5:7x20\B:open
# Scan Mode:         FixedAnalyzerTransmission
# Curves/Scan:       1
# Values/Curve:      71
# Dwell Time:        0.1
# Excitation Energy: 1486.71
# Binding Energy:    289
# Pass Energy:       10
# Bias Voltage:      90
# Detector Voltage:  1900
# Eff. Workfunction: 4.395
# Source:            Focus
# Comment:           
#
# Cycle: 0
# Number of Scans: 12
#
# Cycle: 0, Curve: 0
# Acquisition Date: 10/25/19 18:37:03 UTC
#
# ColumnLabels: energy counts/s
#
289  682.4181
288.9  685.48029
288.8  650.81723
288.7  724.465
288.6  715.20591
288.5  682.94524
288.4  730.66334
288.3  733.49281
288.2  704.67636
288.1  722.6454
288  708.83978
287.9  717.93439
287.8  684.99886
287.7  724.48253
287.6  720.51708
287.5  721.16845
287.4  759.97083
287.3  777.22502
287.2  781.38673
287.1  844.3004
287  885.65451
286.9  894.76596
286.8  934.37977
286.7  990.47284
286.6  998.95712
286.5  1049.3761
286.4  1106.6124
286.3  1118.28
286.2  1156.6025
286.1  1158.8825
286  1153.9731
285.9  1128.2982
285.8  1146.7004
285.7  1041.2219
285.6  1050.5576
285.5  1004.5984
285.4  964.26018
285.3  933.051
285.2  807.33121
285.1  761.34086
285  741.73983
284.9  762.82178
284.8  701.95212
284.7  698.05755
284.6  672.24123
284.5  680.83452
284.4  677.8219
284.3  665.49304
284.2  678.43257
284.1  733.43418
284  718.8302
283.9  660.40439
283.8  658.8084
283.7  708.6407
283.6  678.55796
283.5  690.66801
283.4  667.63158
283.3  683.6434
283.2  680.76484
283.1  661.61411
283  653.42022
282.9  630.86634
282.8  678.13115
282.7  685.90032
282.6  699.8581
282.5  698.58702
282.4  689.00619
282.3  683.43887
282.2  678.00402
282.1  671.28858
282  695.57025

# Region:            O1s
# Acquisition Date:  10/25/19 18:48:29 UTC
# Analysis Method:   XPS
# Analyzer:          Phoibos
# Analyzer Lens:     MediumArea:1.5kV
# Analyzer Slit:     5:7x20\B:open
# Scan Mode:         FixedAnalyzerTransmission
# Curves/Scan:       1
# Values/Curve:      491
# Dwell Time:        0.1
# Excitation Energy: 1486.71
# Binding Energy:    570
# Pass Energy:       10
# Bias Voltage:      90
# Detector Voltage:  1900
# Eff. Workfunction: 4.395
# Source:            Focus
# Comment:           
#
# Cycle: 0
# Number of Scans: 12
#
# Cycle: 0, Curve: 0
# Acquisition Date: 10/25/19 18:48:29 UTC
#
# ColumnLabels: energy counts/s
#
570  1463.3371
569.9  1409.9825
569.8  1402.9574
569.7  1441.1096
569.6  1482.1095
569.5  1457.2175
569.4  1470.6079
569.3  1420.8673
569.2  1439.1431
569.1  1441.1259
569  1405.7615
568.9  1396.4663
568.8  1436.4144
568.7  1394.2281
568.6  1392.3227
568.5  1330.3474
568.4  1417.696
568.3  1395.3195
568.2  1408.7159
568.1  1428.8703
568  1445.9176
567.9  1420.747
567.8  1414.118
567.7  1354.1076
567.6  1360.4206
567.5  1415.0635
567.4  1482.5977
567.3  1428.6671
567.2  1412.0733
567.1  1438.8257
567  1477.4278
566.9  1464.3467
566.8  1455.7825
566.7  1441.7806
566.6  1476.7257
566.5  1491.0057
566.4  1454.8046
566.3  1493.7916
566.2  1484.4505
566.1  1557.1899
566  1527.3118
565.9  1563.9757
565.8  1494.0337
565.7  1461.1957
565.6  1509.3273
565.5  1474.3884
565.4  1512.7758
565.3  1492.6932
565.2  1594.9623
565.1  1567.2364
565  1581.6215
564.9  1590.8781
564.8  1589.7654
564.7  1541.6808
564.6  1549.2826
564.5  1533.3656
564.4  1542.3058
564.3  1531.3649
564.2  1591.7291
564.1  1598.0282
564  1592.0612
563.9  1592.6095
563.8  1591.7762
563.7  1625.8294
563.6  1592.2168
563.5  1661.0575
563.4  1603.3037
563.3  1661.9982
563.2  1676.1161
563.1  1724.3845
563  1676.8547
562.9  1670.0428
562.8  1701.5603
562.7  1664.2044
562.6  1644.2108
562.5  1724.3701
562.4  1718.1177
562.3  1705.8257
562.2  1700.4354
562.1  1760.3871
562  1708.6643
561.9  1753.9164
561.8  1767.3339
561.7  1772.9574
561.6  1740.5991
561.5  1812.2255
561.4  1763.4127
561.3  1751.1676
561.2  1787.1581
561.1  1769.6718
561  1768.903
560.9  1807.6226
560.8  1807.0382
560.7  1809.4833
560.6  1802.6442
560.5  1812.7516
560.4  1890.593
560.3  1810.7086
560.2  1760.043
560.1  1824.5842
560  1798.4942
559.9  1863.865
559.8  1850.316
559.7  1897.2628
559.6  1878.6879
559.5  1813.4825
559.4  1854.9316
559.3  1761.1603
559.2  1834.9982
559.1  1840.6222
559  1826.6477
558.9  1848.5459
558.8  1816.31
558.7  1801.866
558.6  1798.5209
558.5  1806.1961
558.4  1845.8621
558.3  1830.998
558.2  1875.9066
558.1  1853.9401
558  1896.2698
557.9  1915.975
557.8  1922.4553
557.7  1898.6542
557.6  1865.7455
557.5  1913.7431
557.4  1935.1074
557.3  1943.5969
557.2  1947.815
557.1  1909.7401
557  1979.7755
556.9  1980.1689
556.8  1961.1896
556.7  2007.1127
556.6  1961.0649
556.5  2109.7021
556.4  2045.7025
556.3  2010.6994
556.2  1999.6809
556.1  2028.1002
556  1995.4203
555.9  1933.6219
555.8  1954.2892
555.7  1941.3065
555.6  1908.8408
555.5  1901.4783
555.4  1884.3517
555.3  1823.8791
555.2  1834.8729
555.1  1876.4775
555  1778.4111
554.9  1776.1715
554.8  1809.6536
554.7  1729.9075
554.6  1809.8916
554.5  1744.259
554.4  1707.2335
554.3  1733.8865
554.2  1756.6305
554.1  1767.1584
554  1737.6819
553.9  1732.9778
553.8  1681.2532
553.7  1628.6703
553.6  1639.1822
553.5  1595.776
553.4  1645.5932
553.3  1594.5429
553.2  1587.3044
553.1  1583.5458
553  1581.9156
552.9  1564.8536
552.8  1528.4472
552.7  1547.8607
552.6  1546.7078
552.5  1454.7346
552.4  1515.5067
552.3  1526.984
552.2  1509.067
552.1  1464.7506
552  1460.7018
551.9  1400.5384
551.8  1421.0226
551.7  1390.6163
551.6  1453.5912
551.5  1478.0171
551.4  1391.2542
551.3  1401.6193
551.2  1434.7299
551.1  1426.6499
551  1456.5768
550.9  1424.2976
550.8  1427.9146
550.7  1421.0746
550.6  1426.0264
550.5  1388.7685
550.4  1423.3582
550.3  1392.098
550.2  1342.911
550.1  1380.7062
550  1360.1379
549.9  1339.8497
549.8  1375.6866
549.7  1346.8279
549.6  1328.4227
549.5  1301.9299
549.4  1347.7392
549.3  1359.2226
549.2  1369.7503
549.1  1331.5203
549  1379.2602
548.9  1368.0666
548.8  1336.831
548.7  1344.7547
548.6  1317.9673
548.5  1316.239
548.4  1260.1977
548.3  1273.8934
548.2  1265.223
548.1  1272.4744
548  1277.6535
547.9  1297.188
547.8  1233.4764
547.7  1261.4001
547.6  1259.1674
547.5  1251.5411
547.4  1191.7867
547.3  1171.5283
547.2  1250.1088
547.1  1223.4389
547  1232.5364
546.9  1232.7954
546.8  1169.5622
546.7  1183.6138
546.6  1248.412
546.5  1193.5694
546.4  1131.038
546.3  1170.1326
546.2  1157.3971
546.1  1151.8533
546  1122.8925
545.9  1137.563
545.8  1143.3726
545.7  1093.7991
545.6  1076.9675
545.5  1145.0839
545.4  1094.9354
545.3  1067.6451
545.2  1063.5302
545.1  1006.3852
545  1021.2049
544.9  1014.1495
544.8  992.58926
544.7  966.24476
544.6  994.97337
544.5  969.27791
544.4  930.57281
544.3  909.72569
544.2  890.57751
544.1  828.12436
544  864.5165
543.9  819.4707
543.8  819.47647
543.7  774.79328
543.6  786.88951
543.5  771.58637
543.4  750.2706
543.3  749.56647
543.2  739.46864
543.1  752.00555
543  743.45673
542.9  725.54855
542.8  708.52911
542.7  749.52131
542.6  672.15833
542.5  681.03913
542.4  687.34359
542.3  706.29573
542.2  695.41424
542.1  665.46981
542  685.99397
541.9  672.42599
541.8  718.61654
541.7  706.80124
541.6  688.36579
541.5  675.23893
541.4  666.41294
541.3  687.15524
541.2  665.68473
541.1  721.4223
541  704.88682
540.9  703.64478
540.8  663.71231
540.7  688.08625
540.6  696.832
540.5  648.92845
540.4  675.117
540.3  708.9025
540.2  714.20893
540.1  709.25123
540  652.64379
539.9  662.90886
539.8  666.74395
539.7  717.17936
539.6  683.04715
539.5  647.89842
539.4  671.24891
539.3  696.15332
539.2  672.96937
539.1  668.61074
539  704.67557
538.9  718.08986
538.8  657.96457
538.7  656.43034
538.6  674.20533
538.5  709.11741
538.4  657.37224
538.3  675.53572
538.2  668.47696
538.1  659.10559
538  654.41027
537.9  689.8716
537.8  673.04282
537.7  707.408
537.6  699.03595
537.5  713.86545
537.4  716.1418
537.3  746.77958
537.2  794.29177
537.1  798.34124
537  772.9614
536.9  796.23329
536.8  794.68669
536.7  798.23321
536.6  851.40232
536.5  859.73676
536.4  904.26224
536.3  965.63634
536.2  1068.1679
536.1  1171.8514
536  1267.457
535.9  1506.5818
535.8  1701.2247
535.7  1981.2621
535.6  2382.6944
535.5  2869.1693
535.4  3494.1658
535.3  4448.2191
535.2  5492.4669
535.1  6627.5266
535  8030.6613
534.9  9571.4649
534.8  11241.741
534.7  12881.526
534.6  14590.912
534.5  16148.958
534.4  17126.081
534.3  17843.836
534.2  17880.266
534.1  17344.868
534  16648.317
533.9  15302.158
533.8  13831.99
533.7  11879.718
533.6  9988.5339
533.5  8413.1148
533.4  6769.3196
533.3  5337.8461
533.2  4324.7742
533.1  3419.3788
533  2700.1718
532.9  2329.1109
532.8  1985.7861
532.7  1673.9936
532.6  1473.7703
532.5  1338.6389
532.4  1229.4765
532.3  1142.8924
532.2  1043.7077
532.1  945.74784
532  909.28523
531.9  965.31405
531.8  917.85801
531.7  874.30715
531.6  845.85552
531.5  771.1858
531.4  736.4912
531.3  721.66645
531.2  753.66554
531.1  736.40256
531  730.4485
530.9  747.13325
530.8  737.55959
530.7  657.76477
530.6  710.52307
530.5  717.89923
530.4  683.32706
530.3  689.54182
530.2  725.64561
530.1  668.22013
530  672.57777
529.9  685.41046
529.8  675.78937
529.7  684.71142
529.6  637.81457
529.5  636.76562
529.4  610.31424
529.3  611.40488
529.2  626.98688
529.1  641.64169
529  700.33516
528.9  632.81876
528.8  611.6176
528.7  662.68402
528.6  629.83223
528.5  629.62367
528.4  610.63327
528.3  639.86789
528.2  590.35534
528.1  631.04923
528  612.08804
527.9  605.17009
527.8  617.18493
527.7  599.84289
527.6  596.91265
527.5  627.47783
527.4  615.66328
527.3  631.2173
527.2  609.06496
527.1  630.85117
527  594.9221
526.9  584.0997
526.8  596.96401
526.7  604.4186
526.6  581.22586
526.5  607.87537
526.4  599.33933
526.3  604.50882
526.2  632.12745
526.1  578.78588
526  578.16731
525.9  635.55309
525.8  639.62447
525.7  594.68902
525.6  597.8122
525.5  603.03392
525.4  625.16027
525.3  651.67478
525.2  603.51265
525.1  590.89658
525  594.57677
524.9  603.45411
524.8  613.02696
524.7  601.25792
524.6  609.20245
524.5  587.38861
524.4  623.05229
524.3  611.96841
524.2  600.97098
524.1  621.60945
524  614.36527
523.9  601.6182
523.8  607.00163
523.7  664.98878
523.6  605.25411
523.5  563.09648
523.4  576.50207
523.3  579.19433
523.2  597.04487
523.1  617.45835
523  613.66067
522.9  575.96999
522.8  578.39577
522.7  584.21972
522.6  648.89452
522.5  610.50338
522.4  609.81212
522.3  598.29928
522.2  591.49751
522.1  600.86474
522  620.76842
521.9  606.90183
521.8  623.29102
521.7  615.66699
521.6  559.30235
521.5  595.905
521.4  611.97464
521.3  624.15645
521.2  580.56143
521.1  652.4924
521  620.08973

# Region:            Si2p
# Acquisition Date:  10/25/19 18:52:19 UTC
# Analysis Method:   XPS
# Analyzer:          Phoibos
# Analyzer Lens:     MediumArea:1.5kV
# Analyzer Slit:     5:7x20\B:open
# Scan Mode:         FixedAnalyzerTransmission
# Curves/Scan:       1
# Values/Curve:      151
# Dwell Time:        0.1
# Excitation Energy: 1486.71
# Binding Energy:    110
# Pass Energy:       10
# Bias Voltage:      90
# Detector Voltage:  1900
# Eff. Workfunction: 4.395
# Source:            Focus
# Comment:           
#
# Cycle: 0
# Number of Scans: 12
#
# Cycle: 0, Curve: 0
# Acquisition Date: 10/25/19 18:52:19 UTC
#
# ColumnLabels: energy counts/s
#
110  120.59464
109.9  121.02655
109.8  111.96224
109.7  112.95199
109.6  122.2695
109.5  104.17407
109.4  102.65122
109.3  106.51614
109.2  124.35345
109.1  105.08156
109  105.2736
108.9  105.47336
108.8  99.888873
108.7  103.76692
108.6  103.80497
108.5  112.91534
108.4  113.7057
108.3  114.85356
108.2  118.07423
108.1  108.50314
108  120.04541
107.9  92.700576
107.8  114.68071
107.7  114.04746
107.6  120.43533
107.5  99.324361
107.4  92.039762
107.3  124.83769
107.2  142.09124
107.1  141.50651
107  140.07466
106.9  145.14819
106.8  167.32019
106.7  219.76974
106.6  244.73403
106.5  277.00133
106.4  318.92895
106.3  397.86064
106.2  509.2753
106.1  645.54449
106  775.1252
105.9  978.92344
105.8  1190.9178
105.7  1421.3145
105.6  1565.7075
105.5  1854.9415
105.4  2111.1293
105.3  2345.2037
105.2  2559.9976
105.1  2715.9484
105  2982.2774
104.9  2968.7195
104.8  2938.7034
104.7  2922.8118
104.6  2759.7903
104.5  2545.7111
104.4  2257.5771
104.3  1987.6982
104.2  1676.5093
104.1  1413.7881
104  1173.5654
103.9  929.13699
103.8  758.01884
103.7  585.99016
103.6  505.82026
103.5  372.40234
103.4  300.0229
103.3  296.06497
103.2  258.15156
103.1  211.50862
103  187.4414
102.9  189.55251
102.8  168.82585
102.7  159.88897
102.6  154.44416
102.5  154.54595
102.4  132.37233
102.3  142.29492
102.2  115.98577
102.1  107.78373
102  105.15345
101.9  113.68488
101.8  117.86869
101.7  141.20066
101.6  117.309
101.5  105.50636
101.4  119.87576
101.3  123.79555
101.2  125.02517
101.1  133.54599
101  179.94272
100.9  236.87071
100.8  285.59384
100.7  384.68035
100.6  498.10341
100.5  561.04513
100.4  648.46597
100.3  727.79132
100.2  689.77442
100.1  686.80743
100  790.90865
99.9  929.25292
99.8  937.16564
99.7  820.76764
99.6  640.50675
99.5  383.36387
99.4  203.20243
99.3  151.35957
99.2  115.40917
99.1  91.013214
99  90.836676
98.9  95.835389
98.8  86.387921
98.7  83.981924
98.6  81.355931
98.5  75.419828
98.4  71.999622
98.3  69.495552
98.2  65.279261
98.1  61.193951
98  76.15977
97.9  74.651835
97.8  67.537043
97.7  64.458835
97.6  65.613477
97.5  65.091231
97.4  71.490539
97.3  79.669138
97.2  64.194472
97.1  79.478683
97  66.264653
96.9  68.399839
96.8  73.556314
96.7  72.937794
96.6  65.442561
96.5  70.910473
96.4  68.969873
96.3  69.831174
96.2  73.13661
96.1  73.142769
96  65.026335
95.9  64.460941
95.8  74.481175
95.7  65.595049
95.6  69.616455
95.5  72.817869
95.4  76.731441
95.3  72.949624
95.2  82.411365
95.1  81.697776
95  73.825754

# Group:             Spectrum Group 45
#
# Region:            C1s
# Acquisition Date:  10/25/19 19:03:21 UTC
# Analysis Method:   XPS
# Analyzer:          Phoibos
# Analyzer Lens:     MediumArea:1.5kV
# Analyzer Slit:     5:7x20\B:open
# Scan Mode:         FixedAnalyzerTransmission
# Curves/Scan:       1
# Values/Curve:      71
# Dwell Time:        0.1
# Excitation Energy: 1486.71
# Binding Energy:    289
# Pass Energy:       10
# Bias Voltage:      90
# Detector Voltage:  1900
# Eff. Workfunction: 4.395
# Source:            Focus
# Comment:           
#
# Cycle: 0
# Number of Scans: 12
#
# Cycle: 0, Curve: 0
# Acquisition Date: 10/25/19 19:03:21 UTC
#
# ColumnLabels: energy counts/s
#
289  568.67147
288.9  581.56332
288.8  578.44332
288.7  608.09004
288.6  571.82121
288.5  588.27521
288.4  616.26069
288.3  584.1728
288.2  634.8526
288.1  599.78225
288  581.98767
287.9  598.35656
287.8  618.20607
287.7  636.13498
287.6  618.89349
287.5  597.32467
287.4  638.84526
287.3  679.35045
287.2  655.40017
287.1  664.20518
287  731.67119
286.9  766.92858
286.8  793.39144
286.7  840.54231
286.6  810.60676
286.5  879.33202
286.4  959.79419
286.3  965.70576
286.2  1002.916
286.1  1028.2206
286  972.50548
285.9  977.54993
285.8  973.60638
285.7  924.09304
285.6  883.7894
285.5  826.43581
285.4  771.88619
285.3  726.7803
285.2  709.70798
285.1  621.28877
285  623.04121
284.9  583.65087
284.8  580.28257
284.7  603.15737
284.6  562.1017
284.5  562.28851
284.4  551.09604
284.3  561.69157
284.2  595.73446
284.1  578.01353
284  567.66469
283.9  549.85843
283.8  566.00085
283.7  552.24876
283.6  532.56068
283.5  534.44913
283.4  555.91061
283.3  526.84485
283.2  546.46201
283.1  553.65628
283  556.05254
282.9  543.80241
282.8  539.75692
282.7  546.09032
282.6  577.22473
282.5  592.83519
282.4  558.07769
282.3  556.11996
282.2  549.39272
282.1  578.41448
282  550.46176

# Region:            O1s
# Acquisition Date:  10/25/19 19:14:47 UTC
# Analysis Method:   XPS
# Analyzer:          Phoibos
# Analyzer Lens:     MediumArea:1.5kV
# Analyzer Slit:     5:7x20\B:open
# Scan Mode:         FixedAnalyzerTransmission
# Curves/Scan:       1
# Values/Curve:      491
# Dwell Time:        0.1
# Excitation Energy: 1486.71
# Binding Energy:    570
# Pass Energy:       10
# Bias Voltage:      90
# Detector Voltage:  1900
# Eff. Workfunction: 4.395
# Source:            Focus
# Comment:           
#
# Cycle: 0
# Number of Scans: 12
#
# Cycle: 0, Curve: 0
# Acquisition Date: 10/25/19 19:14:47 UTC
#
# ColumnLabels: energy counts/s
#
570  1256.2119
569.9  1266.5555
569.8  1302.9354
569.7  1244.9435
569.6  1255.8298
569.5  1243.6527
569.4  1265.1091
569.3  1200.1861
569.2  1226.5828
569.1  1280.4886
569  1305.1123
568.9  1223.5537
568.8  1231.1273
568.7  1246.0826
568.6  1244.9616
568.5  1228.8437
568.4  1239.3676
568.3  1209.9434
568.2  1210.8667
568.1  1240.5605
568  1194.0027
567.9  1201.0149
567.8  1248.0629
567.7  1225.701
567.6  1231.1302
567.5  1248.3652
567.4  1222.5023
567.3  1239.4639
567.2  1235.1606
567.1  1225.8059
567  1231.1371
566.9  1187.2545
566.8  1249.2025
566.7  1245.5555
566.6  1200.7285
566.5  1265.0246
566.4  1291.3564
566.3  1301.5375
566.2  1296.0682
566.1  1292.0488
566  1296.6978
565.9  1272.9829
565.8  1272.293
565.7  1246.0385
565.6  1242.9891
565.5  1303.8565
565.4  1321.6118
565.3  1321.7118
565.2  1293.0511
565.1  1320.6626
565  1325.3277
564.9  1341.704
564.8  1348.8859
564.7  1332.4282
564.6  1339.9053
564.5  1396.6437
564.4  1373.6247
564.3  1352.9917
564.2  1386.46
564.1  1317.0658
564  1383.3071
563.9  1334.7706
563.8  1373.1904
563.7  1409.0413
563.6  1360.452
563.5  1326.848
563.4  1385.3725
563.3  1384.4622
563.2  1420.1339
563.1  1433.6089
563  1411.1739
562.9  1451.1829
562.8  1440.7751
562.7  1456.1795
562.6  1448.5076
562.5  1474.2708
562.4  1497.3851
562.3  1475.2241
562.2  1458.5619
562.1  1501.0867
562  1520.3015
561.9  1483.6529
561.8  1446.8805
561.7  1439.7823
561.6  1497.2653
561.5  1539.5312
561.4  1537.7817
561.3  1486.1408
561.2  1542.8217
561.1  1562.4816
561  1533.4819
560.9  1533.9061
560.8  1470.6903
560.7  1521.4088
560.6  1522.289
560.5  1565.2307
560.4  1547.1475
560.3  1524.2452
560.2  1559.2261
560.1  1543.1725
560  1593.4241
559.9  1555.5723
559.8  1595.1845
559.7  1598.587
559.6  1573.1612
559.5  1567.6643
559.4  1572.396
559.3  1559.4751
559.2  1548.7017
559.1  1545.417
559  1539.6659
558.9  1564.1284
558.8  1598.9377
558.7  1622.8071
558.6  1609.9436
558.5  1580.8123
558.4  1618.5251
558.3  1619.5188
558.2  1566.0163
558.1  1626.6907
558  1667.5777
557.9  1664.3363
557.8  1623.1828
557.7  1591.4062
557.6  1649.6792
557.5  1722.2143
557.4  1642.8841
557.3  1682.7591
557.2  1664.3358
557.1  1674.7282
557  1769.943
556.9  1697.8203
556.8  1738.1298
556.7  1792.3571
556.6  1734.8919
556.5  1681.6186
556.4  1662.1447
556.3  1737.3787
556.2  1749.6296
556.1  1767.2126
556  1695.0251
555.9  1672.4984
555.8  1607.1947
555.7  1660.1814
555.6  1623.8325
555.5  1577.4895
555.4  1622.8182
555.3  1603.9875
555.2  1595.7187
555.1  1569.6848
555  1579.1914
554.9  1555.2884
554.8  1555.9613
554.7  1496.1181
554.6  1534.6553
554.5  1565.0198
554.4  1481.5834
554.3  1517.4805
554.2  1505.1957
554.1  1425.9068
554  1458.8686
553.9  1505.7104
553.8  1381.4554
553.7  1402.5026
553.6  1365.8895
553.5  1410.3732
553.4  1426.6516
553.3  1416.1879
553.2  1395.9078
553.1  1388.314
553  1363.6824
552.9  1354.1181
552.8  1344.5988
552.7  1329.1803
552.6  1351.9782
552.5  1298.2219
552.4  1239.2026
552.3  1259.266
552.2  1309.0939
552.1  1258.133
552  1246.2412
551.9  1225.7437
551.8  1282.1286
551.7  1193.656
551.6  1270.4775
551.5  1332.7154
551.4  1232.7053
551.3  1201.3379
551.2  1218.6215
551.1  1214.7906
551  1220.762
550.9  1210.2033
550.8  1218.8569
550.7  1225.3184
550.6  1150.8188
550.5  1159.4911
550.4  1187.4651
550.3  1174.3156
550.2  1158.9819
550.1  1210.0919
550  1140.8769
549.9  1165.2027
549.8  1159.624
549.7  1161.0991
549.6  1171.4943
549.5  1161.2172
549.4  1195.011
549.3  1176.2882
549.2  1131.0748
549.1  1150.441
549  1119.004
548.9  1125.4292
548.8  1135.408
548.7  1148.8019
548.6  1137.8067
548.5  1155.9529
548.4  1106.6022
548.3  1087.4837
548.2  1073.6568
548.1  1098.397
548  1068.2574
547.9  1082.4362
547.8  1063.9864
547.7  1077.2525
547.6  1081.4847
547.5  1069.6035
547.4  1025.0106
547.3  1001.1039
547.2  1047.2703
547.1  1041.5848
547  1013.2584
546.9  1003.2684
546.8  1055.0088
546.7  985.60352
546.6  999.27677
546.5  1025.4779
546.4  959.81091
546.3  936.73228
546.2  995.88722
546.1  994.31663
546  960.52684
545.9  926.02288
545.8  991.46893
545.7  968.10264
545.6  968.07392
545.5  913.0684
545.4  945.92618
545.3  916.94136
545.2  858.83054
545.1  866.23184
545  875.50532
544.9  830.69721
544.8  782.9351
544.7  795.60169
544.6  816.36309
544.5  757.53669
544.4  727.00653
544.3  712.43663
544.2  723.01724
544.1  716.49197
544  697.00731
543.9  647.33515
543.8  667.58166
543.7  653.40473
543.6  646.57506
543.5  655.32876
543.4  601.43677
543.3  619.62599
543.2  605.14451
543.1  579.32186
543  604.30491
542.9  604.29005
542.8  607.85657
542.7  583.81204
542.6  591.4427
542.5  621.48112
542.4  601.27789
542.3  565.16986
542.2  585.74927
542.1  567.11245
542  563.34994
541.9  577.52426
541.8  523.52137
541.7  528.90901
541.6  573.43077
541.5  532.59985
541.4  551.07638
541.3  540.95676
541.2  554.79467
541.1  545.22467
541  545.86426
540.9  580.88177
540.8  551.38058
540.7  526.94657
540.6  531.06225
540.5  563.57891
540.4  575.16952
540.3  567.88531
540.2  569.38812
540.1  538.40267
540  518.26475
539.9  564.86292
539.8  577.4524
539.7  507.96588
539.6  534.0527
539.5  537.95929
539.4  575.18537
539.3  567.06501
539.2  569.49058
539.1  561.4881
539  542.39887
538.9  543.67104
538.8  570.46842
538.7  561.8507
538.6  553.59312
538.5  572.00257
538.4  521.62385
538.3  558.83424
538.2  573.384
538.1  577.35365
538  608.51327
537.9  608.4917
537.8  591.31157
537.7  602.09239
537.6  606.75617
537.5  586.77698
537.4  613.29228
537.3  622.98157
537.2  602.52679
537.1  611.09667
537  637.2731
536.9  680.66093
536.8  687.8474
536.7  693.22722
536.6  729.49408
536.5  753.4084
536.4  778.60653
536.3  880.24632
536.2  952.69014
536.1  1049.2117
536  1220.1678
535.9  1386.248
535.8  1647.989
535.7  1993.999
535.6  2364.5159
535.5  2901.5145
535.4  3674.6536
535.3  4428.2103
535.2  5427.0489
535.1  6609.5498
535  7805.1974
534.9  9146.6893
534.8  10533.748
534.7  11878.56
534.6  13180.07
534.5  14488.879
534.4  15124.22
534.3  15217.376
534.2  15116.933
534.1  14616.519
534  13546.902
533.9  12391.655
533.8  10882.269
533.7  9247.5668
533.6  7723.2964
533.5  6309.4738
533.4  5075.4197
533.3  4024.7215
533.2  3163.9854
533.1  2507.2307
533  2003.3683
532.9  1704.8301
532.8  1465.5959
532.7  1206.5711
532.6  1150.0508
532.5  1053.671
532.4  937.16567
532.3  878.28858
532.2  812.96519
532.1  804.77362
532  756.17132
531.9  707.06286
531.8  721.62566
531.7  651.33331
531.6  647.97655
531.5  632.23159
531.4  610.41182
531.3  611.28038
531.2  591.1513
531.1  589.05119
531  605.96869
530.9  590.03747
530.8  600.45002
530.7  581.43431
530.6  532.68742
530.5  519.29296
530.4  535.72347
530.3  579.78539
530.2  552.7636
530.1  533.2566
530  541.52346
529.9  495.74781
529.8  534.28876
529.7  534.04265
529.6  527.61414
529.5  533.86466
529.4  536.95854
529.3  536.81046
529.2  504.74368
529.1  503.33721
529  507.3741
528.9  499.94193
528.8  500.23389
528.7  506.02371
528.6  488.67468
528.5  506.41018
528.4  477.00338
528.3  522.8714
528.2  514.26975
528.1  501.69212
528  514.05103
527.9  522.71025
527.8  506.28677
527.7  482.37191
527.6  511.61098
527.5  486.41796
527.4  503.22922
527.3  521.73686
527.2  502.77412
527.1  482.7206
527  504.90091
526.9  472.83327
526.8  508.40649
526.7  486.5936
526.6  479.05736
526.5  507.49824
526.4  510.43323
526.3  497.46105
526.2  490.58779
526.1  483.84707
526  502.50018
525.9  500.93189
525.8  500.28121
525.7  483.48644
525.6  453.43798
525.5  467.85041
525.4  480.01273
525.3  474.90195
525.2  526.2361
525.1  504.16428
525  490.68211
524.9  486.54837
524.8  511.68336
524.7  480.06265
524.6  485.64153
524.5  485.56053
524.4  508.02718
524.3  520.22304
524.2  477.72591
524.1  460.68425
524  485.24721
523.9  451.56257
523.8  470.88287
523.7  491.35881
523.6  497.31187
523.5  512.24094
523.4  489.16864
523.3  454.3062
523.2  491.72163
523.1  492.01497
523  493.35014
522.9  502.02857
522.8  481.81522
522.7  505.51453
522.6  498.18888
522.5  496.56361
522.4  488.99691
522.3  486.5704
522.2  495.40753
522.1  465.22463
522  510.25522
521.9  514.78648
521.8  511.8425
521.7  490.78428
521.6  481.22114
521.5  488.74178
521.4  517.90512
521.3  490.4251
521.2  512.63738
521.1  513.45144
521  498.30279

# Region:            Si2p
# Acquisition Date:  10/25/19 19:18:37 UTC
# Analysis Method:   XPS
# Analyzer:          Phoibos
# Analyzer Lens:     MediumArea:1.5kV
# Analyzer Slit:     5:7x20\B:open
# Scan Mode:         FixedAnalyzerTransmission
# Curves/Scan:       1
# Values/Curve:      151
# Dwell Time:        0.1
# Excitation Energy: 1486.71
# Binding Energy:    110
# Pass Energy:       10
# Bias Voltage:      90
# Detector Voltage:  1900
# Eff. Workfunction: 4.395
# Source:            Focus
# Comment:           
#
# Cycle: 0
# Number of Scans: 12
#
# Cycle: 0, Curve: 0
# Acquisition Date: 10/25/19 19:18:37 UTC
#
# ColumnLabels: energy counts/s
#
110  94.397064
109.9  90.64785
109.8  99.07172
109.7  91.507134
109.6  87.986543
109.5  95.977193
109.4  92.149466
109.3  93.268688
109.2  96.099321
109.1  96.572963
109  100.69653
108.9  104.54172
108.8  95.098257
108.7  82.992387
108.6  89.370928
108.5  99.479615
108.4  85.825501
108.3  79.824685
108.2  85.821538
108.1  83.747756
108  85.676821
107.9  96.443296
107.8  100.7112
107.7  85.486324
107.6  91.825127
107.5  107.13428
107.4  107.55186
107.3  109.13291
107.2  110.51961
107.1  126.7823
107  138.35791
106.9  146.43551
106.8  170.37413
106.7  182.24734
106.6  231.4606
106.5  306.19939
106.4  369.04053
106.3  434.09927
106.2  539.72936
106.1  661.09174
106  844.95148
105.9  1023.4709
105.8  1223.5073
105.7  1462.1741
105.6  1671.2634
105.5  1843.2847
105.4  2062.1456
105.3  2213.46
105.2  2467.4633
105.1  2570.9431
105  2529.2435
104.9  2577.7179
104.8  2610.4222
104.7  2531.4465
104.6  2399.477
104.5  2188.0514
104.4  1963.925
104.3  1685.3826
104.2  1419.4934
104.1  1185.18
104  914.31804
103.9  710.40737
103.8  579.20359
103.7  452.30896
103.6  396.28165
103.5  294.71108
103.4  260.81267
103.3  225.52941
103.2  189.91869
103.1  186.48382
103  165.72858
102.9  166.08644
102.8  153.31698
102.7  140.81614
102.6  121.83358
102.5  118.64202
102.4  114.66483
102.3  103.38799
102.2  100.79818
102.1  91.82688
102  110.38984
101.9  90.599457
101.8  91.065708
101.7  116.20101
101.6  95.535555
101.5  105.2861
101.4  110.90134
101.3  108.18054
101.2  129.06714
101.1  137.17094
101  159.8061
100.9  175.58105
100.8  245.87468
100.7  330.94295
100.6  389.43797
100.5  403.42357
100.4  424.37063
100.3  440.30047
100.2  445.26876
100.1  525.6128
100  566.13674
99.9  659.94307
99.8  560.91942
99.7  452.68986
99.6  301.37503
99.5  174.37656
99.4  115.17782
99.3  88.597358
99.2  77.927715
99.1  76.185089
99  75.685655
98.9  64.844225
98.8  71.848172
98.7  76.559293
98.6  76.629672
98.5  72.037717
98.4  74.374838
98.3  78.147998
98.2  53.813894
98.1  62.854377
98  61.327039
97.9  68.64581
97.8  72.413069
97.7  63.310459
97.6  65.829994
97.5  59.412054
97.4  61.444913
97.3  63.225802
97.2  57.634627
97.1  66.361864
97  54.406268
96.9  62.103684
96.8  64.955298
96.7  64.63533
96.6  64.061576
96.5  75.501406
96.4  49.299358
96.3  60.076265
96.2  62.175885
96.1  66.84895
96  78.190704
95.9  65.23062
95.8  59.640232
95.7  63.965135
95.6  68.325984
95.5  55.1164
95.4  60.203513
95.3  59.490032
95.2  63.18346
95.1  62.850823
95  62.768914

# Group:             Spectrum Group 55
#
# Region:            C1s
# Acquisition Date:  10/25/19 19:38:18 UTC
# Analysis Method:   XPS
# Analyzer:          Phoibos
# Analyzer Lens:     MediumArea:1.5kV
# Analyzer Slit:     5:7x20\B:open
# Scan Mode:         FixedAnalyzerTransmission
# Curves/Scan:       1
# Values/Curve:      71
# Dwell Time:        0.1
# Excitation Energy: 1486.71
# Binding Energy:    289
# Pass Energy:       10
# Bias Voltage:      90
# Detector Voltage:  1900
# Eff. Workfunction: 4.395
# Source:            Focus
# Comment:           
#
# Cycle: 0
# Number of Scans: 12
#
# Cycle: 0, Curve: 0
# Acquisition Date: 10/25/19 19:38:18 UTC
#
# ColumnLabels: energy counts/s
#
289  448.66051
288.9  441.56233
288.8  448.12635
288.7  448.25384
288.6  414.24898
288.5  420.56487
288.4  439.53916
288.3  417.12982
288.2  445.35481
288.1  450.41982
288  438.01846
287.9  435.3308
287.8  444.38972
287.7  459.05434
287.6  466.63376
287.5  488.44396
287.4  500.85642
287.3  507.61435
287.2  492.55053
287.1  530.43258
287  566.05041
286.9  577.91131
286.8  640.68638
286.7  684.52534
286.6  715.31256
286.5  741.13081
286.4  780.00992
286.3  790.59771
286.2  797.7758
286.1  785.02
286  810.21788
285.9  754.76222
285.8  777.28356
285.7  738.10171
285.6  664.46041
285.5  619.69199
285.4  603.89438
285.3  601.83429
285.2  521.52262
285.1  521.98501
285  509.23516
284.9  484.54097
284.8  455.0161
284.7  463.84866
284.6  419.9802
284.5  404.52295
284.4  447.36873
284.3  419.85409
284.2  434.75814
284.1  407.97895
284  420.8654
283.9  424.40776
283.8  394.09803
283.7  402.35642
283.6  418.6153
283.5  439.74147
283.4  403.10368
283.3  414.89947
283.2  406.2547
283.1  410.72896
283  410.44301
282.9  433.55941
282.8  426.80503
282.7  408.09506
282.6  410.00784
282.5  410.48324
282.4  401.03636
282.3  401.8568
282.2  427.11368
282.1  401.03011
282  402.26767

# Region:            O1s
# Acquisition Date:  10/25/19 19:49:46 UTC
# Analysis Method:   XPS
# Analyzer:          Phoibos
# Analyzer Lens:     MediumArea:1.5kV
# Analyzer Slit:     5:7x20\B:open
# Scan Mode:         FixedAnalyzerTransmission
# Curves/Scan:       1
# Values/Curve:      491
# Dwell Time:        0.1
# Excitation Energy: 1486.71
# Binding Energy:    570
# Pass Energy:       10
# Bias Voltage:      90
# Detector Voltage:  1900
# Eff. Workfunction: 4.395
# Source:            Focus
# Comment:           
#
# Cycle: 0
# Number of Scans: 12
#
# Cycle: 0, Curve: 0
# Acquisition Date: 10/25/19 19:49:46 UTC
#
# ColumnLabels: energy counts/s
#
570  969.37728
569.9  1016.6414
569.8  1003.4971
569.7  999.28876
569.6  1024.9584
569.5  949.93218
569.4  986.18354
569.3  939.25753
569.2  995.87434
569.1  1002.775
569  1036.7199
568.9  1026.5718
568.8  1018.5764
568.7  1014.6613
568.6  1007.7918
568.5  993.12636
568.4  993.02325
568.3  969.19802
568.2  981.23586
568.1  1009.3731
568  1010.6805
567.9  983.16131
567.8  998.21435
567.7  985.77803
567.6  992.89301
567.5  1018.929
567.4  1009.0969
567.3  970.77096
567.2  988.17669
567.1  986.08318
567  1009.6958
566.9  1017.8612
566.8  1035.0917
566.7  1026.924
566.6  1044.2376
566.5  1029.068
566.4  1046.4506
566.3  1062.6372
566.2  1025.7898
566.1  1054.5786
566  1071.608
565.9  1054.9415
565.8  1083.6167
565.7  1023.1983
565.6  1060.369
565.5  1080.628
565.4  1034.4442
565.3  1026.9221
565.2  1043.1932
565.1  1119.1954
565  1078.4137
564.9  1077.0738
564.8  1069.4015
564.7  1104.1268
564.6  1110.0538
564.5  1073.8782
564.4  1044.8133
564.3  1084.5795
564.2  1106.2253
564.1  1103.1903
564  1095.6356
563.9  1141.7684
563.8  1119.854
563.7  1133.78
563.6  1090.1819
563.5  1079.3194
563.4  1156.76
563.3  1175.4232
563.2  1133.5344
563.1  1184.326
563  1158.9739
562.9  1153.4737
562.8  1138.6141
562.7  1200.4288
562.6  1186.1861
562.5  1175.6454
562.4  1186.0501
562.3  1159.8985
562.2  1163.8857
562.1  1187.86
562  1223.806
561.9  1204.8839
561.8  1245.9405
561.7  1204.8217
561.6  1230.5873
561.5  1225.3178
561.4  1240.823
561.3  1195.2731
561.2  1193.2824
561.1  1201.0557
561  1233.6723
560.9  1278.1588
560.8  1243.2053
560.7  1224.5828
560.6  1259.2451
560.5  1258.0999
560.4  1251.7536
560.3  1257.1605
560.2  1276.1208
560.1  1263.0392
560  1225.9069
559.9  1313.3474
559.8  1298.9949
559.7  1273.6053
559.6  1276.4297
559.5  1252.1848
559.4  1239.7578
559.3  1257.8762
559.2  1292.4939
559.1  1275.5167
559  1240.7881
558.9  1256.6746
558.8  1233.0584
558.7  1302.1339
558.6  1295.9178
558.5  1272.6425
558.4  1260.1251
558.3  1312.9312
558.2  1330.0158
558.1  1311.1786
558  1296.045
557.9  1304.8496
557.8  1338.7413
557.7  1356.397
557.6  1329.9792
557.5  1340.7498
557.4  1368.5515
557.3  1392.3579
557.2  1339.5964
557.1  1373.1174
557  1373.1398
556.9  1394.2759
556.8  1386.0305
556.7  1388.8113
556.6  1389.229
556.5  1416.6594
556.4  1409.5779
556.3  1347.7323
556.2  1378.6597
556.1  1422.7723
556  1397.0809
555.9  1336.8117
555.8  1318.6348
555.7  1337.0533
555.6  1350.9125
555.5  1253.8574
555.4  1266.8228
555.3  1302.7686
555.2  1288.1902
555.1  1213.7994
555  1268.1097
554.9  1220.9569
554.8  1232.1242
554.7  1193.4307
554.6  1197.1449
554.5  1229.4794
554.4  1204.5993
554.3  1173.1445
554.2  1208.2194
554.1  1211.8371
554  1183.5105
553.9  1140.8218
553.8  1183.3248
553.7  1088.9149
553.6  1111.3252
553.5  1089.0766
553.4  1096.2066
553.3  1096.0812
553.2  1087.8621
553.1  1082.9972
553  1016.2366
552.9  1040.3539
552.8  1077.5956
552.7  1019.7877
552.6  1021.6926
552.5  1003.2036
552.4  1031.63
552.3  1037.6642
552.2  1047.1593
552.1  989.11653
552  985.99079
551.9  964.04449
551.8  1007.4138
551.7  987.75098
551.6  989.18221
551.5  1006.5016
551.4  956.72834
551.3  970.54108
551.2  978.54369
551.1  942.17977
551  997.14622
550.9  986.04776
550.8  967.24673
550.7  909.9062
550.6  900.70952
550.5  931.24312
550.4  923.13875
550.3  944.05443
550.2  959.06871
550.1  955.01608
550  960.75502
549.9  972.84613
549.8  920.77853
549.7  956.65254
549.6  966.75692
549.5  936.66977
549.4  911.87518
549.3  941.14355
549.2  945.38813
549.1  963.22181
549  926.8
548.9  890.03914
548.8  912.0784
548.7  909.06962
548.6  930.70339
548.5  948.46811
548.4  907.65039
548.3  831.17335
548.2  871.13801
548.1  857.45826
548  842.4235
547.9  860.96008
547.8  870.3375
547.7  854.54806
547.6  851.33316
547.5  863.30358
547.4  831.76684
547.3  820.28828
547.2  847.2082
547.1  848.92984
547  819.72783
546.9  835.97722
546.8  860.31067
546.7  793.87301
546.6  801.19135
546.5  777.03699
546.4  732.67985
546.3  763.1716
546.2  770.48369
546.1  765.92703
546  771.80606
545.9  776.44776
545.8  773.33776
545.7  772.42544
545.6  756.89023
545.5  724.25021
545.4  723.5969
545.3  706.98954
545.2  689.86057
545.1  670.38819
545  694.87589
544.9  657.07423
544.8  649.2882
544.7  578.18221
544.6  575.1184
544.5  605.77913
544.4  588.23814
544.3  536.18403
544.2  553.50211
544.1  559.26522
544  523.75625
543.9  523.64504
543.8  520.52788
543.7  494.47738
543.6  515.37704
543.5  509.57124
543.4  500.15136
543.3  467.53478
543.2  477.93188
543.1  445.40961
543  451.54026
542.9  484.17839
542.8  459.04714
542.7  458.61371
542.6  464.34261
542.5  463.00958
542.4  444.57112
542.3  433.38812
542.2  417.56493
542.1  417.49227
542  428.42141
541.9  438.89736
541.8  440.95657
541.7  423.19785
541.6  408.10364
541.5  393.24102
541.4  396.38303
541.3  398.96235
541.2  398.5736
541.1  409.84195
541  431.79482
540.9  415.79209
540.8  428.25056
540.7  452.388
540.6  405.12737
540.5  455.56854
540.4  438.19514
540.3  432.28833
540.2  427.39579
540.1  422.82108
540  438.4517
539.9  420.09262
539.8  417.34846
539.7  406.28697
539.6  424.60142
539.5  413.95852
539.4  391.98157
539.3  411.36489
539.2  425.8145
539.1  427.29121
539  417.70588
538.9  419.2022
538.8  413.10047
538.7  429.23961
538.6  465.53092
538.5  442.13875
538.4  442.52718
538.3  428.01085
538.2  396.61371
538.1  438.60188
538  457.33297
537.9  460.46058
537.8  428.84603
537.7  468.08272
537.6  455.74283
537.5  449.77101
537.4  462.58098
537.3  461.98478
537.2  474.24694
537.1  472.4353
537  469.62965
536.9  496.71531
536.8  523.80946
536.7  557.04194
536.6  581.69845
536.5  618.75291
536.4  617.17541
536.3  704.44263
536.2  731.90569
536.1  855.1151
536  969.44588
535.9  1133.8878
535.8  1332.5694
535.7  1623.3655
535.6  1971.8944
535.5  2425.3249
535.4  3022.8211
535.3  3689.6367
535.2  4645.7062
535.1  5504.9997
535  6555.266
534.9  7842.3238
534.8  8928.9152
534.7  10105.229
534.6  11035.55
534.5  11695.579
534.4  12173.969
534.3  12324.577
534.2  12017.274
534.1  11418.163
534  10417.279
533.9  9358.7162
533.8  8240.0952
533.7  6999.6124
533.6  5682.2979
533.5  4556.471
533.4  3574.2248
533.3  2879.5633
533.2  2336.9351
533.1  1833.9291
533  1497.1943
532.9  1209.889
532.8  1032.3337
532.7  923.38741
532.6  830.87216
532.5  780.79911
532.4  731.9161
532.3  696.43305
532.2  652.32129
532.1  587.91694
532  582.28448
531.9  573.21561
531.8  552.87573
531.7  533.80684
531.6  502.3397
531.5  504.96937
531.4  483.60622
531.3  489.64813
531.2  496.14733
531.1  456.85363
531  449.92542
530.9  442.62658
530.8  419.1181
530.7  418.16546
530.6  431.31807
530.5  404.26599
530.4  392.24462
530.3  455.36918
530.2  440.5884
530.1  403.67987
530  420.38487
529.9  403.60758
529.8  427.60273
529.7  431.8254
529.6  425.85775
529.5  412.02154
529.4  386.11786
529.3  393.53963
529.2  377.76945
529.1  394.15073
529  401.15948
528.9  376.15915
528.8  383.66468
528.7  396.69559
528.6  372.43104
528.5  374.21177
528.4  387.72219
528.3  380.05711
528.2  377.21155
528.1  400.4524
528  408.54444
527.9  391.88296
527.8  375.26274
527.7  380.67743
527.6  380.84837
527.5  388.35297
527.4  391.21628
527.3  342.7196
527.2  386.8094
527.1  378.49307
527  365.27722
526.9  395.90529
526.8  391.3093
526.7  392.48478
526.6  367.9963
526.5  373.2031
526.4  377.89667
526.3  364.75363
526.2  367.11889
526.1  379.57334
526  366.15464
525.9  373.59433
525.8  385.70204
525.7  412.78035
525.6  404.33465
525.5  366.72349
525.4  379.65543
525.3  396.22149
525.2  373.59543
525.1  375.22673
525  392.56354
524.9  380.65938
524.8  369.14708
524.7  359.24655
524.6  377.12043
524.5  391.41997
524.4  353.54817
524.3  387.00868
524.2  385.73471
524.1  407.50774
524  368.1044
523.9  383.54676
523.8  365.244
523.7  386.13022
523.6  362.23217
523.5  366.09146
523.4  355.21438
523.3  380.63303
523.2  396.63278
523.1  375.18605
523  353.66895
522.9  359.35353
522.8  375.38355
522.7  362.79482
522.6  350.28003
522.5  390.75509
522.4  389.98088
522.3  365.45458
522.2  361.06489
522.1  357.28846
522  356.66779
521.9  381.29824
521.8  381.38741
521.7  367.32034
521.6  350.14338
521.5  353.74085
521.4  367.69744
521.3  371.73493
521.2  385.79037
521.1  369.94364
521  382.41308

# Region:            Si2p
# Acquisition Date:  10/25/19 19:53:36 UTC
# Analysis Method:   XPS
# Analyzer:          Phoibos
# Analyzer Lens:     MediumArea:1.5kV
# Analyzer Slit:     5:7x20\B:open
# Scan Mode:         FixedAnalyzerTransmission
# Curves/Scan:       1
# Values/Curve:      151
# Dwell Time:        0.1
# Excitation Energy: 1486.71
# Binding Energy:    110
# Pass Energy:       10
# Bias Voltage:      90
# Detector Voltage:  1900
# Eff. Workfunction: 4.395
# Source:            Focus
# Comment:           
#
# Cycle: 0
# Number of Scans: 12
#
# Cycle: 0, Curve: 0
# Acquisition Date: 10/25/19 19:53:36 UTC
#
# ColumnLabels: energy counts/s
#
110  78.48925
109.9  70.857731
109.8  58.304961
109.7  78.749908
109.6  70.319472
109.5  76.621752
109.4  70.967162
109.3  89.278683
109.2  80.130476
109.1  66.440144
109  61.405161
108.9  79.14505
108.8  76.130827
108.7  75.825488
108.6  68.787472
108.5  81.212858
108.4  73.966759
108.3  71.80234
108.2  78.312601
108.1  68.129144
108  73.20728
107.9  66.450617
107.8  70.728151
107.7  74.957896
107.6  77.981169
107.5  89.095028
107.4  91.863397
107.3  78.477568
107.2  81.994362
107.1  101.33221
107  92.242459
106.9  103.76066
106.8  127.82618
106.7  171.75202
106.6  189.59515
106.5  233.48982
106.4  280.16434
106.3  380.49731
106.2  426.58465
106.1  559.84534
106  669.81608
105.9  797.49342
105.8  1009.8398
105.7  1194.9719
105.6  1387.784
105.5  1608.5335
105.4  1721.3981
105.3  1935.0364
105.2  2064.5771
105.1  2140.3475
105  2154.6704
104.9  2202.1443
104.8  2029.5363
104.7  2001.9495
104.6  1913.3212
104.5  1676.4821
104.4  1500.0566
104.3  1249.3414
104.2  1068.0661
104.1  851.9438
104  677.01179
103.9  524.04357
103.8  445.93197
103.7  348.45896
103.6  305.01553
103.5  236.889
103.4  216.37733
103.3  174.33327
103.2  164.84961
103.1  146.71694
103  138.70962
102.9  123.11172
102.8  105.15367
102.7  110.96635
102.6  101.5223
102.5  96.251237
102.4  90.266477
102.3  83.401553
102.2  82.69966
102.1  75.152902
102  81.507276
101.9  66.87604
101.8  73.679388
101.7  82.892731
101.6  76.779317
101.5  89.602236
101.4  73.799413
101.3  75.109275
101.2  94.525636
101.1  95.217633
101  98.890475
100.9  113.17956
100.8  140.73211
100.7  198.66226
100.6  224.75005
100.5  262.6063
100.4  257.15763
100.3  230.01688
100.2  255.71431
100.1  276.6006
100  336.33558
99.9  334.04762
99.8  283.25467
99.7  234.37659
99.6  165.39275
99.5  104.5854
99.4  59.937908
99.3  53.24484
99.2  68.771126
99.1  61.719579
99  66.937093
98.9  54.345903
98.8  67.888814
98.7  57.372274
98.6  51.500223
98.5  53.22946
98.4  50.791506
98.3  56.595206
98.2  65.235524
98.1  56.50285
98  63.860938
97.9  61.498897
97.8  49.499362
97.7  57.996325
97.6  55.105107
97.5  58.62565
97.4  64.186577
97.3  61.944242
97.2  53.257801
97.1  56.425682
97  53.08939
96.9  54.670567
96.8  54.068207
96.7  66.841882
96.6  65.050458
96.5  67.350028
96.4  56.634004
96.3  54.587534
96.2  61.422397
96.1  59.966002
96  61.530104
95.9  53.85092
95.8  62.448318
95.7  61.539164
95.6  57.510507
95.5  57.868176
95.4  53.705148
95.3  51.576514
95.2  51.163123
95.1  55.448619
95  60.100794

