# Created by:        SpecsLab Prodigy, Version 4.50.2-r79252 
#
# XY-Serializer Export Settings:
#   Comment Prefix:           #
#   Output meta data:         yes
#   Energy Axis:              Binding Energy
#   Count Rate:               Counts per Second
#   Separate Scan Data:       no
#   Separate Channel Data:    no
#   External Channel Data:    yes
#   Transmission Function:    no
#   ErrorBar:                 no
#   Operation Results:        yes
#   Time Zone Format:         UTC
#
# Group:             Spectrum Group 0
#
# Region:            Survey
# Acquisition Date:  10/30/19 22:56:45 UTC
# Analysis Method:   XPS
# Analyzer:          Phoibos
# Analyzer Lens:     MediumArea:1.5kV
# Analyzer Slit:     5:7x20\B:open
# Scan Mode:         FixedAnalyzerTransmission
# Curves/Scan:       1
# Values/Curve:      1201
# Dwell Time:        0.1
# Excitation Energy: 1486.71
# Binding Energy:    1200
# Pass Energy:       50
# Bias Voltage:      90
# Detector Voltage:  1900
# Eff. Workfunction: 4.395
# Source:            Focus
# Comment:           
#
# Cycle: 0
# Number of Scans: 1
#
# Cycle: 0, Curve: 0
# Acquisition Date: 10/30/19 22:56:45 UTC
#
# ColumnLabels: energy counts/s
#
1200  22541.279
1199  22776.537
1198  23554.305
1197  22410.386
1196  22508.064
1195  22816.59
1194  22850.305
1193  22811.974
1192  22520.404
1191  22718.053
1190  22520.996
1189  22974.594
1188  23015.396
1187  22597.062
1186  23274.864
1185  23021.932
1184  22429.153
1183  22651.612
1182  22837.958
1181  23491.201
1180  22943.074
1179  22541.407
1178  22588.379
1177  22869.353
1176  23490.17
1175  23028.122
1174  23181.834
1173  22655.545
1172  22965.733
1171  23069.963
1170  22720.378
1169  22692.164
1168  22670.17
1167  23651.697
1166  23408.078
1165  23353.583
1164  23676.026
1163  22918.676
1162  22663.246
1161  22956.238
1160  22927.817
1159  23040.537
1158  23217.333
1157  23802.736
1156  23590.111
1155  23704.687
1154  23454.96
1153  23225.986
1152  23654.292
1151  23479.234
1150  24053.78
1149  23431.596
1148  23075.996
1147  23567.334
1146  24879.304
1145  24607.042
1144  23716.865
1143  23792.077
1142  24167.316
1141  23471.043
1140  23639.801
1139  23108.494
1138  23935.539
1137  24221.633
1136  23326.515
1135  24159.417
1134  23996.999
1133  23580.262
1132  23804.719
1131  23161.602
1130  23875.876
1129  23989.388
1128  24230.716
1127  23801.682
1126  23979.642
1125  24190.57
1124  23658.668
1123  24318.932
1122  24292.079
1121  23488.047
1120  23756.424
1119  23201.36
1118  24317.185
1117  24315.885
1116  24678.743
1115  23983.338
1114  23551.325
1113  24177.36
1112  23689.262
1111  24660.391
1110  24013.388
1109  23703.743
1108  24112.943
1107  23823.117
1106  23666.046
1105  24754.951
1104  24436.357
1103  24564.413
1102  24348.893
1101  24233.618
1100  23987.366
1099  25209.96
1098  25119.774
1097  24080.712
1096  24899.298
1095  24752.826
1094  24853.649
1093  24807.477
1092  24710.36
1091  24638.51
1090  25658.605
1089  25119.362
1088  24778.395
1087  24163.565
1086  24786.908
1085  25042.994
1084  24471.618
1083  24349.868
1082  23800.427
1081  24991.462
1080  24831.644
1079  24329.262
1078  24896.636
1077  24454.39
1076  23604.541
1075  24869.337
1074  24813.393
1073  26431.056
1072  26675.078
1071  25345.773
1070  24873.91
1069  25566.979
1068  25700.705
1067  24208.124
1066  25439.239
1065  25085.658
1064  24806.29
1063  24672.976
1062  24316.328
1061  24797.689
1060  25253.933
1059  25327.101
1058  25136.368
1057  24496.232
1056  23896.341
1055  23656.073
1054  24622.586
1053  25035.037
1052  24692.952
1051  24333.021
1050  24517.688
1049  24881.27
1048  25865.658
1047  25589.569
1046  26033.186
1045  26548.501
1044  25337.199
1043  25877.974
1042  25694.766
1041  25850.582
1040  25450.994
1039  25164.761
1038  24471.715
1037  24269.655
1036  25302.267
1035  25213.625
1034  25143.55
1033  25079.766
1032  24817.392
1031  24893.708
1030  25439.419
1029  25161.175
1028  25428.362
1027  25352.205
1026  25454.513
1025  25304.64
1024  25738.328
1023  25669.526
1022  25901.395
1021  24284.175
1020  24854.685
1019  25545.306
1018  25552.606
1017  25580.093
1016  25397.015
1015  25102.471
1014  24956.059
1013  24096.571
1012  23578.698
1011  23771.656
1010  24482.103
1009  24491.863
1008  23438.588
1007  24588.769
1006  24692.793
1005  25206.365
1004  26148.099
1003  25623.506
1002  26475.42
1001  27080.507
1000  25522.957
999  24074.583
998  23637.01
997  23790.88
996  23772.582
995  22704.456
994  22245.912
993  21650.431
992  21219.328
991  20537.246
990  20646.263
989  20795.323
988  20573.97
987  20284.123
986  21233.292
985  22119.396
984  23504.052
983  24842.998
982  25438.545
981  27327.283
980  27939.03
979  26320.211
978  23502.199
977  21585.252
976  20533.636
975  20583.059
974  19278.958
973  18710.659
972  17406.491
971  17144.984
970  15730.541
969  15611.803
968  15696.325
967  15814.11
966  14991.286
965  14195.355
964  14667.071
963  14541.818
962  14620.553
961  14814.418
960  15099.157
959  14997.553
958  14527.385
957  15082.121
956  15077.9
955  14338.474
954  14864.203
953  14875.486
952  15252.122
951  14942.474
950  15127.655
949  15462.492
948  14748.121
947  15113.402
946  14877.197
945  15722.284
944  15410.19
943  14896.835
942  14709.244
941  15226.47
940  15260.116
939  15439.769
938  15295.193
937  15973.293
936  15148.513
935  14870.432
934  14904.19
933  15583.669
932  15913.531
931  15524.53
930  16134.442
929  15668.79
928  15667.735
927  16286.785
926  15915.733
925  16156.887
924  15713.525
923  15629.352
922  16032.231
921  16853.769
920  16234.606
919  15642.624
918  16014.346
917  16479.891
916  16528.571
915  15743.396
914  16310.801
913  16217.51
912  15986.325
911  16488.163
910  16163.857
909  16456.452
908  16157.508
907  16214.418
906  17118.097
905  16554.741
904  15555.507
903  15917.122
902  16742.148
901  16081.362
900  16377.926
899  16066.007
898  15871.859
897  16888.186
896  16996.659
895  16613.49
894  16861.896
893  16563.383
892  16434.591
891  16948.1
890  17021.89
889  16609.84
888  16218.213
887  16990.362
886  17283.934
885  17241.542
884  17373.091
883  17104.899
882  17929.9
881  17430.266
880  17771.361
879  17336.945
878  17962.772
877  17353.817
876  17398.55
875  17567.45
874  17397.392
873  17154.458
872  18018.717
871  18130.357
870  17834.002
869  17652.087
868  17378.458
867  17474.548
866  17847.162
865  18005.724
864  18699.684
863  18587.393
862  18036.572
861  18181.928
860  17644.162
859  18504.897
858  18345.093
857  18401.716
856  19073.973
855  18753.794
854  18093.959
853  18170.198
852  18869.466
851  18645.863
850  18500.637
849  19132.847
848  19279.64
847  19493.202
846  18675.71
845  18995.149
844  18631.542
843  18897.607
842  18822.591
841  19491.727
840  19203.495
839  18617.587
838  19341.935
837  18893.897
836  19260.685
835  19140.869
834  19451.199
833  19441.59
832  19472.614
831  19532.117
830  19900.71
829  19632.169
828  19620.881
827  19984.055
826  20067.867
825  19778.655
824  19966.205
823  20004.858
822  20564.924
821  19434.863
820  20054.641
819  19605.947
818  20380.104
817  20382.771
816  19874.156
815  19958.657
814  20510.21
813  19671.865
812  20313.228
811  20639.333
810  20734.08
809  20958.476
808  20831.099
807  20919.609
806  20673.709
805  20732.014
804  20632.761
803  21095.014
802  21616.295
801  21176.263
800  20960.509
799  21432.688
798  20429.965
797  21236.706
796  21813.026
795  21485.66
794  21670.091
793  21445.034
792  21772.81
791  21074.273
790  21486.694
789  21047.539
788  21144.872
787  22003.909
786  21245.626
785  21000.932
784  21260.365
783  22344.487
782  22901.442
781  22815.954
780  21915.796
779  22723.214
778  22603.934
777  22074.163
776  21797.222
775  22165.209
774  22148.369
773  21799.375
772  21840.157
771  22024.644
770  22329.291
769  23004.018
768  22574.74
767  22601.362
766  22675.343
765  22603.73
764  21966.685
763  22121.833
762  23332.965
761  23311.909
760  22728.121
759  22673.982
758  22636.453
757  23378.963
756  22949.612
755  23003.571
754  23640.384
753  23061.847
752  22894.235
751  23571.774
750  22252.323
749  23615.071
748  23783.902
747  23450.096
746  23802.035
745  23922.562
744  23530.842
743  23913.085
742  23977.132
741  24005.382
740  23990.176
739  24158.637
738  23914.569
737  23903.538
736  23861.886
735  23589.254
734  23733.239
733  24905.565
732  24855.979
731  24891.581
730  25332.591
729  24941.474
728  25084.375
727  23986.501
726  24622.341
725  24885.729
724  24854.845
723  24628.465
722  24828.608
721  24934.561
720  24544.648
719  24959.407
718  24564.446
717  25308.575
716  25088.209
715  25225.764
714  26034.143
713  25282.797
712  24886.182
711  25582.474
710  25474.097
709  24763.15
708  25222.657
707  25415.382
706  25607.399
705  25208.516
704  26003.853
703  26181.857
702  26228.247
701  25704.32
700  25402.648
699  25556.577
698  24830.998
697  25626.936
696  25716.939
695  25531.695
694  26240.235
693  27100.55
692  26228.197
691  27294.971
690  26936.812
689  25859.122
688  26545.72
687  26976.194
686  25745.136
685  26723.873
684  26183.064
683  26688.281
682  26904.333
681  26363.581
680  26813.273
679  26520.333
678  27847.459
677  27046.796
676  26724.1
675  27358.323
674  27319.105
673  27237.572
672  26497.044
671  26754.399
670  27605.314
669  27067.924
668  27888.625
667  26976.673
666  27188.423
665  27694.832
664  27558.85
663  28035.615
662  27860.829
661  27979.358
660  27125.095
659  27925.24
658  28400.712
657  29266.684
656  27966.924
655  28072.461
654  28275.325
653  28440.833
652  29039.813
651  28312.508
650  29105.021
649  28321.202
648  28064.039
647  28719.046
646  29033.934
645  28886.6
644  29035.525
643  29479.462
642  30062.453
641  29192.881
640  29264.983
639  28504.513
638  28506.775
637  28184.631
636  29077.684
635  30077.195
634  29957.832
633  29430.196
632  29829.679
631  29251.661
630  29275.882
629  28836.791
628  28787.454
627  29842.705
626  29043.011
625  29707.874
624  29864.837
623  29954.401
622  30313.985
621  29752.851
620  29556.932
619  30163.039
618  29982.833
617  29574.66
616  30134.135
615  29598.242
614  30321.754
613  30658.258
612  29972.967
611  30344.847
610  30090.312
609  30205.352
608  29771.033
607  30230.94
606  29540.846
605  30993.053
604  30506.581
603  30467.176
602  30420.203
601  30871.685
600  30532.949
599  29736.152
598  30149.511
597  30432.597
596  30733.902
595  30182.923
594  31005.036
593  30911.646
592  30169.897
591  30175.782
590  30479.22
589  30257.163
588  30522.368
587  30891.442
586  31203.665
585  31145.468
584  30879.653
583  30669.303
582  30063.954
581  30297.068
580  30320.536
579  30864.524
578  29868.513
577  30385.6
576  30861.226
575  31053.698
574  31033.799
573  30833.536
572  30472.891
571  30067.623
570  28696.742
569  27977.645
568  27665.434
567  27701.828
566  28837.285
565  29516.028
564  29054.057
563  28285.026
562  30788.52
561  31354.587
560  31501.293
559  32412.455
558  33769.047
557  34273.463
556  35327.568
555  34913.198
554  33893
553  31924.652
552  30460.402
551  28774.848
550  27684.395
549  27123.763
548  25946.796
547  23839.014
546  22807.017
545  20328.647
544  17224.941
543  14808.037
542  13537.357
541  12229.899
540  11370.355
539  11326.56
538  11676.824
537  13101.342
536  17280.027
535  44391.894
534  127962.59
533  134639.25
532  49590.126
531  17580.524
530  12235.435
529  11727.163
528  11059.333
527  10926.189
526  10717.393
525  10960.51
524  10381.664
523  10330.081
522  10247.875
521  10466.375
520  10417.815
519  10133.106
518  10425.863
517  10576.888
516  10261.598
515  10496.696
514  10623.985
513  10742.158
512  10542.666
511  10419.995
510  10973.053
509  10653.409
508  10386.196
507  10401.184
506  10206.475
505  10424.494
504  10529.203
503  10258.588
502  10778.248
501  10508.533
500  10904.992
499  11307.704
498  11585.767
497  11774.461
496  10799.753
495  10405.019
494  10670.518
493  10364.817
492  10319.515
491  10207.795
490  9973.1516
489  10333.342
488  10539.268
487  10780.4
486  10520.712
485  10747.128
484  10729.159
483  10772.638
482  10714.434
481  10463.868
480  10006.877
479  10604.35
478  10819.475
477  10398.432
476  10635.471
475  10466.992
474  10429.56
473  10470.006
472  10419.135
471  11167.038
470  10021.474
469  10841.678
468  10834.254
467  10728.369
466  10319.491
465  10730.765
464  11249.414
463  10890.165
462  11031.198
461  11005.337
460  11086.796
459  10813.229
458  10656.17
457  11119.731
456  11018.501
455  11045.171
454  10894.25
453  10784.383
452  11016.756
451  10851.121
450  10780.12
449  10771.848
448  11043.339
447  10983.979
446  11206.196
445  11110.093
444  10450.695
443  10900.948
442  10745.273
441  10904.876
440  11176.436
439  11410.692
438  10987.491
437  11156.013
436  11122.61
435  11334.174
434  11199.765
433  10948.159
432  10783.343
431  11426.048
430  11059.613
429  10974.699
428  11335.343
427  10408.216
426  11350.484
425  11294.312
424  10899.252
423  11026.666
422  11363.343
421  11146.702
420  10921.955
419  11066.687
418  11097.007
417  10985.92
416  11363.751
415  11314.312
414  11588.3
413  11280.83
412  11881.953
411  10950.793
410  10921.775
409  11501.74
408  11526.332
407  11608.948
406  10837.617
405  11230.676
404  11585.719
403  11488.711
402  11915.772
401  12185.462
400  11602.37
399  10854.635
398  10964.283
397  11238.39
396  10942.711
395  11380.638
394  11666.623
393  11366.572
392  10704.749
391  11022.052
390  11066.682
389  11307.58
388  10955.537
387  11686.1
386  11806.916
385  11096.083
384  11215.833
383  11748.656
382  11578.587
381  11246.309
380  11825.365
379  11083.168
378  12192.312
377  11363.374
376  11593.281
375  11994.438
374  11509.597
373  11636.744
372  11162.106
371  11234.049
370  11611.299
369  11200.654
368  11611.683
367  11691.578
366  11843.761
365  11768.109
364  11986.503
363  11941.958
362  11772.142
361  11997.9
360  12102.325
359  11975.221
358  12043.88
357  12017.889
356  12257.178
355  12308.799
354  11643.29
353  12569.223
352  13122.434
351  12748.276
350  12499.155
349  13345.633
348  13708.186
347  13585.584
346  12776.759
345  11954.941
344  12348.314
343  12217.44
342  12243.18
341  12305.134
340  12814.013
339  12891.32
338  12601.893
337  12383.367
336  12774.856
335  12490.272
334  12606.177
333  12780.552
332  12095.565
331  13171.489
330  13483.789
329  13151.844
328  12932.644
327  12871.621
326  13019.612
325  13680.083
324  13087.696
323  12915.928
322  13153.857
321  12960.259
320  12813.23
319  13480.632
318  13475.252
317  13422.386
316  13573.367
315  13270.833
314  13656.894
313  13953.76
312  14072.026
311  14254.657
310  13481.604
309  14022.956
308  14410.591
307  14361.463
306  14714.125
305  14045.457
304  14636.21
303  14201.784
302  14115.517
301  13638.568
300  13142.757
299  12578.203
298  12365.043
297  12548.727
296  12622.316
295  11934.333
294  11754.282
293  11386.677
292  10974.365
291  11912.334
290  13206.92
289  13958.575
288  16348.685
287  24453.8
286  49605.632
285  45690.435
284  18289.492
283  11403.753
282  10793.711
281  10400.146
280  10617.625
279  10254.867
278  11168.869
277  10900.245
276  11239.111
275  10442.304
274  10165.175
273  10673.546
272  10374.927
271  10751.616
270  10838.647
269  10441.296
268  10637.637
267  11001.561
266  10388.413
265  10123.301
264  10642.63
263  10178.479
262  11015.838
261  10443.53
260  10389.602
259  10894.464
258  10852.027
257  10502.422
256  10380.238
255  10825.798
254  10746.755
253  10284.031
252  10532.118
251  10330.101
250  10557.127
249  10590.823
248  10431.385
247  10712.816
246  10660.542
245  10635.003
244  10373.507
243  10203.018
242  9663.729
241  10185.911
240  10754.307
239  10239.018
238  10352.899
237  10869.379
236  10639.647
235  10622.388
234  10580.712
233  11462.831
232  10628.102
231  10850.834
230  10890.31
229  11385.892
228  10986.325
227  10485.996
226  10446.595
225  11085.239
224  11148.586
223  11018.791
222  10593.751
221  11014.382
220  10889.821
219  10719.042
218  11060.41
217  10853.524
216  10379.134
215  10413.383
214  10944.791
213  10788.284
212  11158.371
211  10968.818
210  10707.24
209  10176.225
208  10393.18
207  10850.901
206  10656.2
205  11079.232
204  10857.468
203  10851.138
202  10201.625
201  11115.909
200  11551.476
199  11804.994
198  10788.908
197  11139.404
196  11101.778
195  11157.09
194  11271.321
193  11136.892
192  10488.178
191  10619.043
190  10452.438
189  10772.805
188  10023.302
187  10259.836
186  10158.846
185  10280.798
184  10770.173
183  11211.695
182  11150.304
181  12086.338
180  11991.994
179  11740.979
178  12452.513
177  12139.177
176  11764.685
175  11540.7
174  11868.858
173  11498.873
172  11181.169
171  10901.726
170  11173.06
169  10598.574
168  9830.5014
167  9261.961
166  9060.8726
165  8170.1186
164  7369.7623
163  7312.0039
162  7452.8802
161  7427.8322
160  7382.2298
159  7968.3122
158  9691.2213
157  16066.967
156  27253.995
155  33056.726
154  25841.919
153  16335.6
152  10158.244
151  8342.0507
150  7457.9893
149  7250.7741
148  7411.68
147  7076.819
146  6686.9574
145  6582.9725
144  6699.311
143  6831.2538
142  6562.4886
141  6380.4947
140  6284.7946
139  5967.7846
138  5811.9985
137  6332.6545
136  5848.9853
135  6153.5252
134  6110.1969
133  6541.0825
132  6195.8868
131  6802.2847
130  6363.8325
129  6869.9464
128  6941.2526
127  7430.9742
126  7208.8151
125  7222.6062
124  7527.6872
123  7141.2315
122  6635.9963
121  6198.4568
120  5831.33
119  5779.7752
118  5400.9561
117  4732.1659
116  4392.0447
115  3681.5926
114  3197.4566
113  2713.1012
112  2114.5862
111  2030.1296
110  1948.6775
109  2377.4452
108  2434.3324
107  3029.8883
106  7813.2751
105  25169.072
104  35448.071
103  20863.604
102  8504.2734
101  2811.2027
100  1980.4954
99  2067.7463
98  2075.6337
97  1933.6216
96  1803.5434
95  2072.7831
94  1924.2226
93  1924.1183
92  1743.1712
91  2250.6487
90  2190.0712
89  1929.9497
88  1781.5751
87  1740.6551
86  1929.8712
85  1871.8572
84  1802.9514
83  2006.7625
82  2148.0018
81  2179.5972
80  2218.2419
79  2270.2009
78  2010.1407
77  1992.1309
76  2188.7459
75  2243.1355
74  2238.2834
73  2088.8594
72  2049.7235
71  2223.1792
70  2163.3287
69  2166.3159
68  2016.6481
67  2079.1105
66  1894.8493
65  1887.762
64  2418.2603
63  2043.6038
62  2131.2514
61  2217.6056
60  2047.079
59  1841.6979
58  1848.3851
57  2134.0178
56  1970.8275
55  2073.4902
54  2260.53
53  2301.3647
52  2374.4596
51  2414.3356
50  2388.7614
49  2308.8027
48  2308.4129
47  2242.8811
46  2274.7396
45  2169.0307
44  2023.9198
43  2061.6322
42  1801.4961
41  1749.889
40  1728.1411
39  1654.7666
38  1579.2738
37  1400.052
36  1582.0798
35  1450.7247
34  1510.5255
33  1750.5734
32  1766.1628
31  1943.2857
30  2143.9464
29  2493.7155
28  3674.3433
27  5781.8078
26  6539.2512
25  4680.6307
24  2278.6702
23  1065.2636
22  676.41153
21  588.23336
20  736.86828
19  688.69186
18  982.93253
17  1185.9361
16  1625.1291
15  1703.8134
14  1596.5636
13  1631.6042
12  1414.2055
11  1092.8268
10  1264.504
9  1595.1721
8  1460.7883
7  1262.225
6  678.06984
5  216.60216
4  62.099298
3  45.2204
2  37.0436
1  5.66035
0  13.46557

# Region:            C1s
# Acquisition Date:  10/30/19 23:25:20 UTC
# Analysis Method:   XPS
# Analyzer:          Phoibos
# Analyzer Lens:     MediumArea:1.5kV
# Analyzer Slit:     5:7x20\B:open
# Scan Mode:         FixedAnalyzerTransmission
# Curves/Scan:       1
# Values/Curve:      151
# Dwell Time:        0.1
# Excitation Energy: 1486.71
# Binding Energy:    295
# Pass Energy:       10
# Bias Voltage:      90
# Detector Voltage:  1900
# Eff. Workfunction: 4.395
# Source:            Focus
# Comment:           
#
# Cycle: 0
# Number of Scans: 15
#
# Cycle: 0, Curve: 0
# Acquisition Date: 10/30/19 23:25:20 UTC
#
# ColumnLabels: energy counts/s
#
295  793.52801
294.9  759.96327
294.8  789.57018
294.7  769.7643
294.6  760.64924
294.5  793.48997
294.4  801.6796
294.3  775.93122
294.2  801.68479
294.1  819.63539
294  820.11699
293.9  808.89146
293.8  834.07255
293.7  797.47962
293.6  795.94113
293.5  818.06678
293.4  770.97368
293.3  797.71786
293.2  792.04785
293.1  781.94975
293  772.75113
292.9  719.02258
292.8  753.15731
292.7  729.62722
292.6  721.37179
292.5  706.57743
292.4  737.67049
292.3  765.4638
292.2  744.56938
292.1  733.17992
292  709.20668
291.9  772.41986
291.8  718.15536
291.7  699.36395
291.6  740.75688
291.5  726.38629
291.4  735.32456
291.3  753.27313
291.2  737.99745
291.1  722.05627
291  755.09113
290.9  708.08328
290.8  721.56917
290.7  762.42948
290.6  732.15607
290.5  776.17673
290.4  800.77513
290.3  789.6055
290.2  773.88172
290.1  825.62934
290  848.42536
289.9  861.68951
289.8  863.18998
289.7  895.01892
289.6  915.99792
289.5  925.09615
289.4  866.93787
289.3  843.88365
289.2  845.27905
289.1  876.66145
289  899.80285
288.9  860.53941
288.8  858.39831
288.7  880.47581
288.6  857.69151
288.5  855.82046
288.4  834.8601
288.3  913.5429
288.2  860.32734
288.1  905.12344
288  919.05051
287.9  959.34583
287.8  1044.4421
287.7  1079.0791
287.6  1124.7081
287.5  1162.9382
287.4  1259.47
287.3  1322.3341
287.2  1318.1088
287.1  1329.3933
287  1343.6126
286.9  1382.5586
286.8  1357.173
286.7  1396.1375
286.6  1466.4245
286.5  1504.3496
286.4  1691.24
286.3  2028.1905
286.2  2425.7796
286.1  2840.6933
286  3308.8569
285.9  3837.1705
285.8  4368.5736
285.7  4819.1147
285.6  5162.5616
285.5  5427.399
285.4  5367.823
285.3  5122.7385
285.2  4686.3232
285.1  4134.9292
285  3504.7043
284.9  2897.0134
284.8  2422.0632
284.7  1907.709
284.6  1559.4029
284.5  1269.5383
284.4  1074.3896
284.3  948.56755
284.2  870.16738
284.1  852.44039
284  815.99634
283.9  820.2813
283.8  753.462
283.7  771.79291
283.6  745.63561
283.5  767.80097
283.4  760.47447
283.3  737.45504
283.2  748.15916
283.1  768.106
283  713.33698
282.9  682.41616
282.8  739.14789
282.7  729.40673
282.6  728.26664
282.5  709.03453
282.4  726.55724
282.3  732.04088
282.2  716.09035
282.1  733.92786
282  749.21047
281.9  738.20638
281.8  733.36751
281.7  714.58668
281.6  738.3689
281.5  720.66255
281.4  727.16988
281.3  709.84056
281.2  691.50106
281.1  694.96508
281  706.0744
280.9  701.61083
280.8  668.83671
280.7  702.2089
280.6  679.46749
280.5  695.72101
280.4  725.80026
280.3  690.43008
280.2  723.45878
280.1  738.09486
280  699.72217

# Region:            O1s
# Acquisition Date:  10/30/19 23:39:34 UTC
# Analysis Method:   XPS
# Analyzer:          Phoibos
# Analyzer Lens:     MediumArea:1.5kV
# Analyzer Slit:     5:7x20\B:open
# Scan Mode:         FixedAnalyzerTransmission
# Curves/Scan:       1
# Values/Curve:      491
# Dwell Time:        0.1
# Excitation Energy: 1486.71
# Binding Energy:    570
# Pass Energy:       10
# Bias Voltage:      90
# Detector Voltage:  1900
# Eff. Workfunction: 4.395
# Source:            Focus
# Comment:           
#
# Cycle: 0
# Number of Scans: 15
#
# Cycle: 0, Curve: 0
# Acquisition Date: 10/30/19 23:39:34 UTC
#
# ColumnLabels: energy counts/s
#
570  2281.4331
569.9  2306.7382
569.8  2345.0539
569.7  2279.4702
569.6  2268.8132
569.5  2283.8323
569.4  2267.0143
569.3  2236.028
569.2  2269.6822
569.1  2286.9181
569  2280.8118
568.9  2256.5504
568.8  2269.8821
568.7  2240.6318
568.6  2224.8176
568.5  2194.0398
568.4  2229.9881
568.3  2219.8908
568.2  2263.5173
568.1  2229.2566
568  2215.2894
567.9  2196.7958
567.8  2221.7911
567.7  2209.2135
567.6  2239.4107
567.5  2224.0342
567.4  2189.9378
567.3  2248.0367
567.2  2138.1535
567.1  2164.2968
567  2197.9314
566.9  2197.1961
566.8  2189.3902
566.7  2180.6427
566.6  2168.8436
566.5  2234.8931
566.4  2221.8051
566.3  2173.9609
566.2  2194.4824
566.1  2195.6313
566  2208.5722
565.9  2241.0269
565.8  2226.3354
565.7  2243.6375
565.6  2225.174
565.5  2173.573
565.4  2211.485
565.3  2225.6977
565.2  2237.6957
565.1  2289.6651
565  2270.6383
564.9  2225.5716
564.8  2294.3592
564.7  2337.808
564.6  2236.219
564.5  2269.6786
564.4  2253.2046
564.3  2292.8111
564.2  2298.2964
564.1  2303.3395
564  2299.5193
563.9  2315.4046
563.8  2273.6971
563.7  2261.524
563.6  2267.6435
563.5  2315.0395
563.4  2274.074
563.3  2291.4932
563.2  2287.1103
563.1  2267.8411
563  2322.0277
562.9  2324.0654
562.8  2384.8899
562.7  2347.1018
562.6  2359.7406
562.5  2420.8881
562.4  2415.2395
562.3  2376.5788
562.2  2320.5808
562.1  2356.5306
562  2386.3772
561.9  2378.5105
561.8  2351.2109
561.7  2454.223
561.6  2418.8093
561.5  2386.4402
561.4  2368.8161
561.3  2385.8051
561.2  2333.8183
561.1  2450.5277
561  2456.5554
560.9  2447.293
560.8  2440.3457
560.7  2411.2337
560.6  2420.8097
560.5  2459.0785
560.4  2427.4329
560.3  2449.0897
560.2  2586.5938
560.1  2513.6575
560  2494.5567
559.9  2609.5621
559.8  2524.4582
559.7  2536.9885
559.6  2499.0369
559.5  2530.9742
559.4  2504.6472
559.3  2518.5864
559.2  2573.7183
559.1  2619.3492
559  2495.6948
558.9  2531.5505
558.8  2530.9726
558.7  2579.355
558.6  2568.0169
558.5  2550.1738
558.4  2504.4559
558.3  2574.5402
558.2  2578.1815
558.1  2542.6637
558  2592.0582
557.9  2647.1618
557.8  2603.4237
557.7  2607.6149
557.6  2583.2055
557.5  2614.9966
557.4  2578.8083
557.3  2607.5953
557.2  2615.9822
557.1  2621.8863
557  2572.8281
556.9  2706.1098
556.8  2681.8217
556.7  2716.8287
556.6  2682.425
556.5  2704.9113
556.4  2781.0762
556.3  2751.7444
556.2  2692.915
556.1  2797.0321
556  2762.7265
555.9  2727.1276
555.8  2765.0817
555.7  2711.9508
555.6  2729.556
555.5  2727.5778
555.4  2702.8661
555.3  2736.7237
555.2  2777.1377
555.1  2682.7852
555  2716.5572
554.9  2718.9978
554.8  2663.6761
554.7  2660.7513
554.6  2688.6675
554.5  2700.7956
554.4  2704.251
554.3  2646.2871
554.2  2598.4802
554.1  2555.8573
554  2655.7986
553.9  2575.5179
553.8  2603.2222
553.7  2540.7018
553.6  2570.8084
553.5  2563.7954
553.4  2494.1766
553.3  2527.8287
553.2  2499.2314
553.1  2510.0825
553  2534.2924
552.9  2532.4389
552.8  2472.3618
552.7  2431.3872
552.6  2389.8745
552.5  2382.9678
552.4  2440.2121
552.3  2366.9615
552.2  2382.8534
552.1  2422.701
552  2381.8567
551.9  2311.9752
551.8  2296.8269
551.7  2323.8668
551.6  2352.7847
551.5  2213.3112
551.4  2195.1427
551.3  2327.5351
551.2  2233.465
551.1  2239.5807
551  2257.1457
550.9  2215.3057
550.8  2241.4709
550.7  2255.2303
550.6  2226.1637
550.5  2202.0454
550.4  2189.5567
550.3  2137.8372
550.2  2119.07
550.1  2115.2116
550  2138.4898
549.9  2151.4992
549.8  2205.7608
549.7  2246.1695
549.6  2154.6716
549.5  2140.3695
549.4  2130.9753
549.3  2093.1767
549.2  2106.324
549.1  2156.796
549  2125.89
548.9  2028.5529
548.8  2088.5526
548.7  2064.4323
548.6  2097.2722
548.5  2138.0925
548.4  2068.0048
548.3  2037.8423
548.2  2031.684
548.1  2016.3183
548  2002.8728
547.9  1956.1786
547.8  1951.2429
547.7  1922.8827
547.6  1913.136
547.5  1942.1247
547.4  1923.3049
547.3  1895.4151
547.2  1937.2671
547.1  1883.3133
547  1833.8399
546.9  1856.4072
546.8  1845.3779
546.7  1837.0208
546.6  1798.308
546.5  1779.5004
546.4  1703.4655
546.3  1707.6884
546.2  1758.3622
546.1  1742.2066
546  1708.2621
545.9  1690.7895
545.8  1717.085
545.7  1692.6524
545.6  1691.8536
545.5  1690.6915
545.4  1633.2469
545.3  1624.5265
545.2  1629.8367
545.1  1611.8398
545  1658.8553
544.9  1571.7121
544.8  1559.9866
544.7  1516.2275
544.6  1510.5262
544.5  1502.8022
544.4  1539.6075
544.3  1464.0818
544.2  1425.7074
544.1  1395.903
544  1352.1016
543.9  1351.5374
543.8  1304.5666
543.7  1350.6026
543.6  1296.7585
543.5  1211.4861
543.4  1254.9436
543.3  1231.4357
543.2  1225.79
543.1  1222.6799
543  1156.9583
542.9  1093.0001
542.8  1117.103
542.7  1146.9512
542.6  1125.3337
542.5  1117.9892
542.4  1077.9992
542.3  1088.5395
542.2  1076.956
542.1  1036.2307
542  1080.3362
541.9  1083.8585
541.8  1032.3255
541.7  991.444
541.6  1013.1484
541.5  1006.9387
541.4  1016.9721
541.3  1025.8582
541.2  958.57407
541.1  947.34866
541  957.85302
540.9  972.88576
540.8  976.1673
540.7  945.46003
540.6  940.22897
540.5  989.5117
540.4  983.01926
540.3  963.87774
540.2  870.452
540.1  920.18646
540  937.12815
539.9  944.12145
539.8  907.01928
539.7  937.10299
539.6  934.0639
539.5  957.15694
539.4  903.45212
539.3  883.53189
539.2  893.05743
539.1  933.92153
539  929.31272
538.9  897.5588
538.8  874.40928
538.7  870.5946
538.6  927.00097
538.5  909.79664
538.4  896.25
538.3  913.81712
538.2  901.6844
538.1  897.96317
538  939.03682
537.9  960.38845
537.8  953.58495
537.7  943.5298
537.6  899.52894
537.5  894.56923
537.4  922.89329
537.3  928.53339
537.2  914.94347
537.1  948.68679
537  957.52962
536.9  945.12795
536.8  923.80242
536.7  958.38672
536.6  957.06223
536.5  994.04162
536.4  956.06364
536.3  925.03524
536.2  989.92701
536.1  989.77389
536  980.62903
535.9  1038.1925
535.8  1054.8713
535.7  1057.0529
535.6  1105.6026
535.5  1171.5833
535.4  1232.2389
535.3  1331.3268
535.2  1447.187
535.1  1637.1152
535  1877.5641
534.9  2144.7002
534.8  2500.9794
534.7  3038.4953
534.6  3730.2611
534.5  4650.1002
534.4  5604.0691
534.3  6860.064
534.2  8353.2089
534.1  9852.3666
534  11475.058
533.9  13004.106
533.8  14463.419
533.7  15438.179
533.6  16167.127
533.5  16577.897
533.4  16303.044
533.3  15637.045
533.2  14648.879
533.1  13472.659
533  12033.515
532.9  10642.84
532.8  9375.3518
532.7  7954.4291
532.6  6727.7428
532.5  5573.2906
532.4  4618.276
532.3  3863.1247
532.2  3223.6806
532.1  2806.7638
532  2356.526
531.9  2146.0983
531.8  1911.158
531.7  1741.8532
531.6  1588.0271
531.5  1496.3881
531.4  1390.9655
531.3  1295.1357
531.2  1204.1958
531.1  1199.8952
531  1167.3687
530.9  1076.8209
530.8  1093.4379
530.7  1002.2506
530.6  1046.3061
530.5  1016.6539
530.4  977.99845
530.3  935.10548
530.2  968.88453
530.1  904.26417
530  923.07106
529.9  933.30532
529.8  926.26083
529.7  895.8822
529.6  857.84139
529.5  904.85591
529.4  910.40621
529.3  857.2003
529.2  848.71236
529.1  882.51893
529  922.18423
528.9  885.51775
528.8  894.26623
528.7  869.00922
528.6  854.30873
528.5  869.4658
528.4  905.76071
528.3  853.23916
528.2  832.13204
528.1  882.32341
528  871.66516
527.9  878.93414
527.8  897.17316
527.7  862.19273
527.6  818.97642
527.5  840.15479
527.4  877.69188
527.3  847.4839
527.2  830.37198
527.1  854.77
527  823.65254
526.9  833.78489
526.8  829.66931
526.7  796.58355
526.6  823.66595
526.5  861.57986
526.4  834.47845
526.3  806.58473
526.2  850.79093
526.1  823.2533
526  833.2921
525.9  832.0307
525.8  860.87901
525.7  803.25405
525.6  797.42782
525.5  843.05726
525.4  832.87495
525.3  858.85864
525.2  799.36632
525.1  817.77503
525  803.36433
524.9  826.71344
524.8  803.18011
524.7  800.33169
524.6  861.43723
524.5  863.6117
524.4  826.78202
524.3  833.62081
524.2  824.60909
524.1  834.71143
524  820.14607
523.9  847.11156
523.8  852.73701
523.7  812.69151
523.6  824.7892
523.5  851.04418
523.4  810.66057
523.3  830.57179
523.2  847.64512
523.1  864.72984
523  805.16043
522.9  802.59889
522.8  845.33584
522.7  854.81355
522.6  826.90963
522.5  824.05423
522.4  827.07196
522.3  825.64527
522.2  803.41001
522.1  818.79061
522  842.34959
521.9  820.11184
521.8  797.00852
521.7  823.60627
521.6  847.99808
521.5  837.48425
521.4  842.50126
521.3  863.26191
521.2  842.03542
521.1  790.22826
521  841.95364

# Region:            Si2p
# Acquisition Date:  10/30/19 23:51:53 UTC
# Analysis Method:   XPS
# Analyzer:          Phoibos
# Analyzer Lens:     MediumArea:1.5kV
# Analyzer Slit:     5:7x20\B:open
# Scan Mode:         FixedAnalyzerTransmission
# Curves/Scan:       1
# Values/Curve:      421
# Dwell Time:        0.1
# Excitation Energy: 1486.71
# Binding Energy:    137
# Pass Energy:       10
# Bias Voltage:      90
# Detector Voltage:  1900
# Eff. Workfunction: 4.395
# Source:            Focus
# Comment:           
#
# Cycle: 0
# Number of Scans: 15
#
# Cycle: 0, Curve: 0
# Acquisition Date: 10/30/19 23:51:53 UTC
#
# ColumnLabels: energy counts/s
#
137  376.60519
136.9  383.09994
136.8  398.03491
136.7  378.24661
136.6  364.83231
136.5  392.00452
136.4  366.16086
136.3  379.13638
136.2  362.64672
136.1  357.2367
136  371.34712
135.9  363.7667
135.8  394.49321
135.7  381.53364
135.6  386.40706
135.5  379.12035
135.4  389.55336
135.3  372.52008
135.2  368.45679
135.1  394.42946
135  407.34457
134.9  388.75017
134.8  398.48884
134.7  396.42619
134.6  403.87235
134.5  391.26959
134.4  352.69006
134.3  339.50313
134.2  383.95559
134.1  368.8071
134  349.80518
133.9  365.64849
133.8  379.32534
133.7  381.76224
133.6  382.5169
133.5  340.44403
133.4  355.84719
133.3  388.89188
133.2  390.15504
133.1  391.37939
133  364.64413
132.9  362.82428
132.8  359.94024
132.7  402.0251
132.6  395.94349
132.5  391.68927
132.4  389.46705
132.3  384.03889
132.2  396.64352
132.1  394.32791
132  386.72484
131.9  366.16675
131.8  413.65724
131.7  406.60984
131.6  371.39619
131.5  392.94686
131.4  388.98984
131.3  409.98826
131.2  411.9125
131.1  402.54807
131  409.09001
130.9  412.12807
130.8  395.09984
130.7  396.83031
130.6  403.2525
130.5  401.18637
130.4  398.05149
130.3  414.27302
130.2  404.97926
130.1  405.96913
130  447.9998
129.9  423.24162
129.8  434.75784
129.7  420.9826
129.6  415.10346
129.5  425.71935
129.4  414.65416
129.3  424.70722
129.2  411.30393
129.1  445.82521
129  435.20847
128.9  435.81048
128.8  418.47503
128.7  434.00303
128.6  441.96289
128.5  437.93959
128.4  430.55538
128.3  412.03972
128.2  469.20128
128.1  478.92621
128  478.93465
127.9  454.89676
127.8  485.50643
127.7  463.63532
127.6  480.86271
127.5  465.75862
127.4  475.35513
127.3  465.56167
127.2  503.8017
127.1  456.44655
127  432.04828
126.9  418.19882
126.8  456.36643
126.7  472.60639
126.6  468.10868
126.5  461.57108
126.4  441.19876
126.3  461.82418
126.2  462.66445
126.1  436.14192
126  463.12616
125.9  455.05779
125.8  456.62553
125.7  471.38712
125.6  457.20366
125.5  471.48604
125.4  438.77613
125.3  462.4642
125.2  440.68788
125.1  475.90991
125  456.30896
124.9  444.10754
124.8  451.19686
124.7  439.67977
124.6  457.69795
124.5  443.78046
124.4  439.81649
124.3  454.21544
124.2  461.96065
124.1  485.82549
124  471.40885
123.9  447.82554
123.8  428.97236
123.7  420.12822
123.6  434.65947
123.5  454.24095
123.4  467.9403
123.3  431.91838
123.2  440.94335
123.1  427.52054
123  435.14306
122.9  448.15866
122.8  426.66122
122.7  459.29369
122.6  419.59536
122.5  410.83155
122.4  441.43431
122.3  402.44813
122.2  421.0812
122.1  433.71813
122  433.73003
121.9  397.43829
121.8  410.78326
121.7  383.58102
121.6  395.22944
121.5  409.10024
121.4  394.2451
121.3  396.28083
121.2  399.64272
121.1  394.81581
121  392.59777
120.9  398.4202
120.8  424.19181
120.7  390.38377
120.6  400.66678
120.5  374.10511
120.4  364.26178
120.3  396.2705
120.2  379.64888
120.1  383.11564
120  358.16667
119.9  362.87425
119.8  347.04175
119.7  382.73836
119.6  403.29767
119.5  380.80763
119.4  387.29501
119.3  389.00888
119.2  383.75745
119.1  365.95473
119  365.99588
118.9  358.74356
118.8  334.22774
118.7  343.61129
118.6  372.27101
118.5  348.84615
118.4  334.46447
118.3  319.43458
118.2  325.72267
118.1  326.33804
118  333.36623
117.9  317.97081
117.8  305.59817
117.7  335.61839
117.6  308.87408
117.5  308.24154
117.4  333.85291
117.3  346.82101
117.2  308.3007
117.1  294.4353
117  303.07363
116.9  299.49215
116.8  282.33748
116.7  291.43358
116.6  302.35547
116.5  294.34323
116.4  289.77168
116.3  274.78191
116.2  277.61536
116.1  269.94718
116  277.93525
115.9  260.4239
115.8  273.64862
115.7  265.52856
115.6  244.2379
115.5  254.21093
115.4  245.07176
115.3  271.0411
115.2  236.58973
115.1  242.81245
115  247.46198
114.9  255.75239
114.8  221.28155
114.7  237.13068
114.6  229.30248
114.5  214.72302
114.4  213.15022
114.3  204.3596
114.2  220.34735
114.1  211.82404
114  193.8777
113.9  191.87765
113.8  202.25787
113.7  193.44656
113.6  187.21685
113.5  181.24985
113.4  197.13497
113.3  180.91808
113.2  166.42185
113.1  169.20567
113  168.03542
112.9  165.84585
112.8  161.84876
112.7  162.81723
112.6  142.40827
112.5  141.4392
112.4  151.64942
112.3  140.88715
112.2  148.55003
112.1  152.75133
112  153.33542
111.9  149.92537
111.8  147.18649
111.7  137.67073
111.6  137.41172
111.5  139.72907
111.4  147.65523
111.3  132.76404
111.2  154.491
111.1  139.71871
111  150.50085
110.9  144.08978
110.8  137.04067
110.7  129.16784
110.6  137.66737
110.5  131.55498
110.4  145.31146
110.3  129.2687
110.2  124.48764
110.1  125.9986
110  135.95287
109.9  140.73502
109.8  148.60447
109.7  136.54097
109.6  129.41
109.5  137.9695
109.4  136.98236
109.3  138.85233
109.2  126.87466
109.1  131.6941
109  141.69759
108.9  138.80517
108.8  135.59494
108.7  134.06101
108.6  120.24359
108.5  131.21417
108.4  131.95709
108.3  126.50854
108.2  134.25666
108.1  129.36357
108  126.30255
107.9  134.1383
107.8  143.38984
107.7  142.84773
107.6  131.876
107.5  143.95587
107.4  145.61519
107.3  123.04139
107.2  124.39509
107.1  129.51086
107  140.66664
106.9  133.77922
106.8  133.36652
106.7  142.28387
106.6  144.0017
106.5  149.99929
106.4  149.40605
106.3  151.32096
106.2  186.86871
106.1  180.27252
106  179.11091
105.9  234.58314
105.8  255.69634
105.7  328.79829
105.6  421.39902
105.5  500.85936
105.4  620.91087
105.3  786.01357
105.2  959.81176
105.1  1151.8226
105  1433.1219
104.9  1734.6444
104.8  1968.576
104.7  2230.4039
104.6  2451.2458
104.5  2732.5589
104.4  2862.3548
104.3  2935.6991
104.2  3034.7798
104.1  2991.8856
104  2934.9023
103.9  2777.1766
103.8  2534.5827
103.7  2274.6371
103.6  1937.5669
103.5  1761.1484
103.4  1581.2647
103.3  1410.0805
103.2  1292.5524
103.1  1179.466
103  1148.247
102.9  1096.5397
102.8  1115.0108
102.7  1027.6729
102.6  1011.8611
102.5  933.42176
102.4  823.72565
102.3  692.11962
102.2  576.90961
102.1  461.4146
102  361.52058
101.9  293.22687
101.8  220.10791
101.7  195.28548
101.6  174.24141
101.5  153.18857
101.4  154.68558
101.3  148.2332
101.2  142.2381
101.1  136.48229
101  125.69692
100.9  138.68299
100.8  128.12358
100.7  136.3024
100.6  138.62715
100.5  153.82878
100.4  147.91929
100.3  137.88765
100.2  142.83688
100.1  158.22189
100  153.40354
99.9  157.82906
99.8  157.81544
99.7  146.62106
99.6  156.20543
99.5  125.89449
99.4  127.90264
99.3  141.17348
99.2  132.49623
99.1  115.75487
99  136.96133
98.9  128.36576
98.8  121.13359
98.7  135.09803
98.6  133.82947
98.5  108.81649
98.4  127.89316
98.3  135.33703
98.2  122.1915
98.1  134.18345
98  123.89313
97.9  125.43382
97.8  143.83237
97.7  133.74222
97.6  119.119
97.5  121.94717
97.4  123.13269
97.3  124.77407
97.2  122.90852
97.1  122.50655
97  126.72793
96.9  128.0954
96.8  136.5324
96.7  121.40229
96.6  135.09488
96.5  135.04671
96.4  117.76811
96.3  143.09239
96.2  118.13472
96.1  126.45984
96  116.52024
95.9  112.93801
95.8  108.12123
95.7  104.67631
95.6  126.61928
95.5  119.84289
95.4  113.00665
95.3  122.18903
95.2  133.40234
95.1  116.63716
95  132.51192

# Group:             Ajuste altura
#
# Group:             Spectrum Group 5
#
# Region:            C1s
# Acquisition Date:  10/31/19 00:04:10 UTC
# Analysis Method:   XPS
# Analyzer:          Phoibos
# Analyzer Lens:     MediumArea:1.5kV
# Analyzer Slit:     5:7x20\B:open
# Scan Mode:         FixedAnalyzerTransmission
# Curves/Scan:       1
# Values/Curve:      151
# Dwell Time:        0.1
# Excitation Energy: 1486.71
# Binding Energy:    295
# Pass Energy:       10
# Bias Voltage:      90
# Detector Voltage:  1900
# Eff. Workfunction: 4.395
# Source:            Focus
# Comment:           
#
# Cycle: 0
# Number of Scans: 15
#
# Cycle: 0, Curve: 0
# Acquisition Date: 10/31/19 00:04:10 UTC
#
# ColumnLabels: energy counts/s
#
295  780.71794
294.9  755.33846
294.8  765.51975
294.7  785.66075
294.6  771.12292
294.5  776.17074
294.4  797.84577
294.3  794.04373
294.2  810.50192
294.1  823.0539
294  788.22715
293.9  786.91989
293.8  818.52006
293.7  794.1592
293.6  804.4025
293.5  737.14203
293.4  759.32969
293.3  735.28673
293.2  771.01763
293.1  767.73951
293  760.54431
292.9  767.66941
292.8  725.65838
292.7  743.35679
292.6  749.16457
292.5  735.55487
292.4  720.58702
292.3  712.54545
292.2  736.17239
292.1  711.20272
292  746.08756
291.9  730.78317
291.8  716.26434
291.7  689.47734
291.6  697.39418
291.5  700.13402
291.4  741.4304
291.3  745.55079
291.2  718.26983
291.1  710.36451
291  729.30791
290.9  721.60819
290.8  747.12199
290.7  727.46141
290.6  743.70843
290.5  758.1983
290.4  743.36449
290.3  762.82255
290.2  775.05572
290.1  826.01034
290  819.98064
289.9  840.14021
289.8  795.42636
289.7  795.75717
289.6  798.34388
289.5  817.91014
289.4  846.95989
289.3  798.2431
289.2  854.68874
289.1  849.34287
289  828.42606
288.9  829.96612
288.8  841.37536
288.7  859.30107
288.6  837.23005
288.5  822.99813
288.4  850.89116
288.3  842.75472
288.2  854.41915
288.1  864.74951
288  880.86308
287.9  931.60665
287.8  957.14351
287.7  1016.6363
287.6  1054.7073
287.5  1085.3137
287.4  1160.6422
287.3  1201.7046
287.2  1196.2199
287.1  1214.0714
287  1236.57
286.9  1239.216
286.8  1275.1324
286.7  1319.3223
286.6  1407.5291
286.5  1507.6591
286.4  1612.2077
286.3  1828.5238
286.2  2127.0735
286.1  2480.6819
286  2879.4721
285.9  3424.5833
285.8  3843.8362
285.7  4328.236
285.6  4668.0889
285.5  4858.7488
285.4  4881.3013
285.3  4805.0198
285.2  4467.6514
285.1  4008.4706
285  3618.7473
284.9  3054.6526
284.8  2527.5499
284.7  2107.9415
284.6  1710.7662
284.5  1394.059
284.4  1183.1868
284.3  1017.7424
284.2  907.56621
284.1  843.01795
284  824.58558
283.9  782.68765
283.8  726.83027
283.7  778.11802
283.6  746.7644
283.5  695.80909
283.4  694.24069
283.3  705.54399
283.2  683.61415
283.1  707.7419
283  707.28042
282.9  718.79143
282.8  724.90312
282.7  727.66589
282.6  701.93049
282.5  690.43823
282.4  720.39623
282.3  775.09238
282.2  750.14685
282.1  693.98834
282  709.20014
281.9  687.15673
281.8  682.93628
281.7  685.98503
281.6  666.58634
281.5  710.7185
281.4  690.84264
281.3  719.38153
281.2  697.97781
281.1  674.28139
281  725.24604
280.9  746.23007
280.8  669.80027
280.7  672.26591
280.6  653.36978
280.5  659.21476
280.4  704.6208
280.3  695.37336
280.2  681.882
280.1  663.1934
280  714.96255

# Region:            O1s
# Acquisition Date:  10/31/19 00:18:24 UTC
# Analysis Method:   XPS
# Analyzer:          Phoibos
# Analyzer Lens:     MediumArea:1.5kV
# Analyzer Slit:     5:7x20\B:open
# Scan Mode:         FixedAnalyzerTransmission
# Curves/Scan:       1
# Values/Curve:      491
# Dwell Time:        0.1
# Excitation Energy: 1486.71
# Binding Energy:    570
# Pass Energy:       10
# Bias Voltage:      90
# Detector Voltage:  1900
# Eff. Workfunction: 4.395
# Source:            Focus
# Comment:           
#
# Cycle: 0
# Number of Scans: 15
#
# Cycle: 0, Curve: 0
# Acquisition Date: 10/31/19 00:18:24 UTC
#
# ColumnLabels: energy counts/s
#
570  2191.3469
569.9  2195.9258
569.8  2188.1218
569.7  2242.9791
569.6  2203.5186
569.5  2242.6789
569.4  2203.5849
569.3  2275.746
569.2  2233.1856
569.1  2203.2835
569  2164.2378
568.9  2177.1283
568.8  2180.9782
568.7  2198.3313
568.6  2185.9343
568.5  2141.846
568.4  2172.305
568.3  2139.5664
568.2  2147.9642
568.1  2165.4701
568  2166.0033
567.9  2112.7832
567.8  2185.5643
567.7  2184.342
567.6  2165.169
567.5  2144.0965
567.4  2120.1924
567.3  2144.2829
567.2  2154.6284
567.1  2112.7621
567  2106.4356
566.9  2130.3731
566.8  2155.5976
566.7  2122.2858
566.6  2109.3724
566.5  2069.0151
566.4  2130.757
566.3  2133.6465
566.2  2119.3498
566.1  2101.3685
566  2088.6795
565.9  2103.4617
565.8  2114.0758
565.7  2130.6374
565.6  2198.8999
565.5  2211.2235
565.4  2200.8254
565.3  2224.4346
565.2  2213.2431
565.1  2176.5943
565  2145.8192
564.9  2162.6572
564.8  2143.5694
564.7  2198.4796
564.6  2138.2156
564.5  2112.762
564.4  2124.3774
564.3  2144.0381
564.2  2183.2502
564.1  2177.4193
564  2223.6317
563.9  2244.3506
563.8  2271.4036
563.7  2192.3012
563.6  2253.25
563.5  2235.8503
563.4  2260.1391
563.3  2194.8132
563.2  2247.3679
563.1  2221.7936
563  2269.1589
562.9  2280.1113
562.8  2290.7992
562.7  2210.1977
562.6  2292.086
562.5  2304.3765
562.4  2302.6112
562.3  2288.3
562.2  2258.9898
562.1  2251.183
562  2313.9496
561.9  2342.8173
561.8  2310.3736
561.7  2315.2247
561.6  2344.3378
561.5  2391.6247
561.4  2383.2319
561.3  2389.9862
561.2  2410.2979
561.1  2325.6083
561  2353.3323
560.9  2415.5989
560.8  2339.8389
560.7  2311.8448
560.6  2366.9071
560.5  2337.5794
560.4  2436.7276
560.3  2378.408
560.2  2438.4664
560.1  2411.288
560  2486.849
559.9  2324.2821
559.8  2447.3259
559.7  2462.3545
559.6  2346.5257
559.5  2445.9291
559.4  2492.347
559.3  2469.8998
559.2  2439.0285
559.1  2460.3471
559  2472.2079
558.9  2410.0781
558.8  2470.3346
558.7  2479.5219
558.6  2420.8373
558.5  2488.7429
558.4  2508.2294
558.3  2522.7064
558.2  2543.2855
558.1  2487.2398
558  2511.1716
557.9  2536.5641
557.8  2494.7098
557.7  2568.2488
557.6  2488.2137
557.5  2510.8415
557.4  2546.7307
557.3  2573.1756
557.2  2515.6828
557.1  2542.5841
557  2583.7277
556.9  2552.5704
556.8  2582.3605
556.7  2615.9621
556.6  2704.8094
556.5  2611.2486
556.4  2656.8712
556.3  2720.1991
556.2  2744.3986
556.1  2625.444
556  2693.7915
555.9  2672.4152
555.8  2640.2597
555.7  2720.9649
555.6  2734.6359
555.5  2668.5629
555.4  2660.6788
555.3  2691.7493
555.2  2649.6689
555.1  2666.9976
555  2675.9781
554.9  2682.3485
554.8  2657.3344
554.7  2642.9696
554.6  2607.268
554.5  2577.8607
554.4  2603.4127
554.3  2572.8504
554.2  2545.9635
554.1  2532.622
554  2526.1213
553.9  2457.2349
553.8  2500.81
553.7  2494.125
553.6  2471.4665
553.5  2481.7958
553.4  2445.0637
553.3  2442.1699
553.2  2459.8723
553.1  2417.0046
553  2400.8248
552.9  2456.8553
552.8  2437.3649
552.7  2415.6526
552.6  2388.685
552.5  2364.2771
552.4  2252.9703
552.3  2314.1364
552.2  2292.17
552.1  2281.6921
552  2247.7072
551.9  2269.2716
551.8  2266.8921
551.7  2267.0837
551.6  2266.2744
551.5  2205.5913
551.4  2283.3141
551.3  2232.9695
551.2  2155.9902
551.1  2222.2682
551  2133.3392
550.9  2146.4715
550.8  2146.8649
550.7  2101.1162
550.6  2125.2693
550.5  2165.0052
550.4  2156.4055
550.3  2089.3445
550.2  2120.1347
550.1  2093.4705
550  2102.9209
549.9  2093.8373
549.8  2152.1007
549.7  2079.9373
549.6  2043.8976
549.5  2103.7291
549.4  2070.1854
549.3  2028.4818
549.2  1979.319
549.1  2001.5345
549  2003.4461
548.9  1988.7336
548.8  2029.3606
548.7  2033.2773
548.6  1965.416
548.5  1971.7262
548.4  1942.6863
548.3  2000.0967
548.2  1994.9295
548.1  1988.9179
548  1967.8415
547.9  1916.4445
547.8  1920.6147
547.7  1929.418
547.6  1846.0096
547.5  1879.9665
547.4  1820.0486
547.3  1864.3901
547.2  1863.2137
547.1  1807.4408
547  1865.8113
546.9  1784.2191
546.8  1771.0279
546.7  1763.5694
546.6  1707.1578
546.5  1731.5309
546.4  1752.4049
546.3  1688.8452
546.2  1687.6547
546.1  1693.2113
546  1667.2026
545.9  1660.4544
545.8  1637.228
545.7  1608.3856
545.6  1569.8019
545.5  1601.9113
545.4  1634.4331
545.3  1585.4589
545.2  1581.5166
545.1  1558.5845
545  1532.1638
544.9  1500.5206
544.8  1502.2452
544.7  1466.414
544.6  1434.4369
544.5  1468.8099
544.4  1436.7761
544.3  1386.6096
544.2  1337.7535
544.1  1358.1534
544  1375.5147
543.9  1318.6675
543.8  1306.041
543.7  1378.3504
543.6  1242.6855
543.5  1224.505
543.4  1233.4024
543.3  1184.5141
543.2  1139.8544
543.1  1127.5599
543  1111.3868
542.9  1056.3399
542.8  1083.1304
542.7  1053.6016
542.6  1115.1692
542.5  1050.9774
542.4  1041.1956
542.3  1070.7262
542.2  1015.9871
542.1  1019.6431
542  1003.5137
541.9  1049.1383
541.8  982.91976
541.7  933.68306
541.6  928.0463
541.5  925.59584
541.4  935.24621
541.3  932.72165
541.2  947.41327
541.1  944.57732
541  917.81785
540.9  924.08336
540.8  924.52911
540.7  900.94297
540.6  900.09341
540.5  898.80587
540.4  894.10825
540.3  902.28252
540.2  896.08167
540.1  896.84328
540  875.70192
539.9  894.79814
539.8  930.29468
539.7  885.72351
539.6  860.19954
539.5  860.87653
539.4  879.64702
539.3  859.36424
539.2  874.48492
539.1  884.89566
539  881.9454
538.9  856.30719
538.8  870.58904
538.7  873.26568
538.6  867.08073
538.5  872.61582
538.4  890.16216
538.3  892.63639
538.2  863.19738
538.1  911.60391
538  883.13036
537.9  861.16211
537.8  924.13431
537.7  885.7419
537.6  861.05508
537.5  891.46828
537.4  899.15979
537.3  912.93372
537.2  916.54734
537.1  910.99387
537  895.7651
536.9  916.71196
536.8  945.53396
536.7  894.66131
536.6  920.51106
536.5  940.13503
536.4  936.53822
536.3  960.81499
536.2  950.32903
536.1  974.85906
536  941.84209
535.9  983.28653
535.8  1012.8772
535.7  997.71433
535.6  1058.4804
535.5  1117.7851
535.4  1144.7029
535.3  1211.4749
535.2  1368.2125
535.1  1532.3783
535  1725.5685
534.9  1956.363
534.8  2406.5681
534.7  2976.3939
534.6  3665.1765
534.5  4454.1668
534.4  5403.6057
534.3  6652.2267
534.2  8199.9277
534.1  9747.3971
534  11277.218
533.9  12743.551
533.8  14274.82
533.7  15298.392
533.6  15982.821
533.5  16367.991
533.4  16198.175
533.3  15762.791
533.2  14725.768
533.1  13768.768
533  12080.105
532.9  10602.586
532.8  9161.5396
532.7  7893.5937
532.6  6603.4578
532.5  5642.9041
532.4  4695.921
532.3  3963.9596
532.2  3250.6253
532.1  2811.7103
532  2369.3863
531.9  2129.654
531.8  1871.3711
531.7  1677.8904
531.6  1513.8691
531.5  1415.5763
531.4  1346.4562
531.3  1300.9253
531.2  1226.7502
531.1  1139.7795
531  1135.676
530.9  1093.2618
530.8  1048.2131
530.7  1034.5691
530.6  1020.6575
530.5  1019.5377
530.4  992.63982
530.3  969.11501
530.2  956.84234
530.1  944.2
530  919.09142
529.9  896.39422
529.8  910.09119
529.7  869.27069
529.6  878.37357
529.5  862.02975
529.4  833.8292
529.3  862.75981
529.2  828.86528
529.1  855.34834
529  837.04415
528.9  830.21607
528.8  877.17133
528.7  874.06203
528.6  820.68735
528.5  784.82299
528.4  825.01576
528.3  828.27767
528.2  804.13495
528.1  782.90279
528  808.85848
527.9  815.71183
527.8  782.65297
527.7  793.46133
527.6  774.00443
527.5  825.47404
527.4  790.74548
527.3  757.09019
527.2  808.65869
527.1  805.03785
527  845.31248
526.9  837.33451
526.8  827.7386
526.7  827.21781
526.6  799.39313
526.5  799.72362
526.4  769.80039
526.3  766.167
526.2  759.68983
526.1  783.02522
526  796.31815
525.9  814.02234
525.8  809.45018
525.7  809.47738
525.6  816.57377
525.5  817.32538
525.4  821.10195
525.3  780.2017
525.2  814.4138
525.1  806.27202
525  814.12402
524.9  775.98264
524.8  808.49156
524.7  819.39596
524.6  840.44389
524.5  832.25085
524.4  808.17634
524.3  779.68511
524.2  788.91184
524.1  818.87636
524  791.50869
523.9  808.78911
523.8  821.41013
523.7  852.75686
523.6  744.41067
523.5  758.53612
523.4  799.40245
523.3  767.12993
523.2  774.60769
523.1  752.49699
523  747.68675
522.9  800.16362
522.8  799.07497
522.7  797.89455
522.6  791.60812
522.5  761.47139
522.4  786.33407
522.3  760.31086
522.2  757.49571
522.1  776.09736
522  740.94702
521.9  777.725
521.8  766.49765
521.7  783.83823
521.6  780.939
521.5  773.71629
521.4  811.40732
521.3  756.73871
521.2  763.0217
521.1  750.08909
521  783.07185

# Region:            Si2p
# Acquisition Date:  10/31/19 00:30:44 UTC
# Analysis Method:   XPS
# Analyzer:          Phoibos
# Analyzer Lens:     MediumArea:1.5kV
# Analyzer Slit:     5:7x20\B:open
# Scan Mode:         FixedAnalyzerTransmission
# Curves/Scan:       1
# Values/Curve:      421
# Dwell Time:        0.1
# Excitation Energy: 1486.71
# Binding Energy:    137
# Pass Energy:       10
# Bias Voltage:      90
# Detector Voltage:  1900
# Eff. Workfunction: 4.395
# Source:            Focus
# Comment:           
#
# Cycle: 0
# Number of Scans: 15
#
# Cycle: 0, Curve: 0
# Acquisition Date: 10/31/19 00:30:44 UTC
#
# ColumnLabels: energy counts/s
#
137  402.661
136.9  379.54692
136.8  370.93468
136.7  376.78983
136.6  374.60946
136.5  368.90546
136.4  344.10573
136.3  370.59266
136.2  368.58701
136.1  366.75316
136  377.08865
135.9  362.64602
135.8  369.88081
135.7  376.95015
135.6  371.58941
135.5  368.71616
135.4  366.51541
135.3  369.10625
135.2  372.1568
135.1  380.04683
135  358.70855
134.9  368.69917
134.8  370.12105
134.7  394.48563
134.6  406.2123
134.5  357.46653
134.4  349.14502
134.3  395.95268
134.2  387.19376
134.1  390.09136
134  370.72019
133.9  359.06034
133.8  362.55672
133.7  361.64133
133.6  361.92754
133.5  362.8968
133.4  361.38926
133.3  390.45793
133.2  374.85203
133.1  361.98693
133  363.51648
132.9  387.29532
132.8  367.97521
132.7  394.67574
132.6  365.34497
132.5  348.86091
132.4  363.90814
132.3  376.11725
132.2  392.71712
132.1  364.50937
132  374.87735
131.9  360.00071
131.8  349.03046
131.7  395.42386
131.6  380.30645
131.5  374.74758
131.4  381.76155
131.3  368.89004
131.2  377.95297
131.1  399.88169
131  370.29181
130.9  384.91009
130.8  403.3545
130.7  405.98967
130.6  372.67694
130.5  403.96621
130.4  407.33494
130.3  413.61757
130.2  402.65069
130.1  390.04602
130  398.63679
129.9  437.09288
129.8  426.30446
129.7  428.63849
129.6  407.64572
129.5  408.16947
129.4  426.41245
129.3  411.88735
129.2  410.45807
129.1  400.33789
129  421.05704
128.9  415.77221
128.8  442.29736
128.7  462.0635
128.6  445.61133
128.5  412.42559
128.4  416.65923
128.3  426.49133
128.2  422.7885
128.1  413.58176
128  443.71376
127.9  461.69904
127.8  461.74834
127.7  444.78646
127.6  447.15143
127.5  448.16482
127.4  455.48808
127.3  442.88238
127.2  436.79927
127.1  454.76371
127  451.82337
126.9  467.77996
126.8  467.17269
126.7  453.10428
126.6  462.08718
126.5  449.31064
126.4  451.3904
126.3  482.48294
126.2  431.40382
126.1  446.64612
126  433.9882
125.9  433.8011
125.8  451.70597
125.7  454.59283
125.6  467.10902
125.5  462.47716
125.4  458.7335
125.3  446.56336
125.2  427.32165
125.1  451.43562
125  457.81548
124.9  439.07499
124.8  430.93592
124.7  432.8023
124.6  422.38198
124.5  428.64132
124.4  449.11766
124.3  445.18256
124.2  433.37357
124.1  422.91887
124  456.95498
123.9  466.31684
123.8  421.71036
123.7  436.70305
123.6  426.74279
123.5  425.40874
123.4  423.84822
123.3  425.6732
123.2  427.7695
123.1  415.19232
123  420.44793
122.9  413.94542
122.8  411.13954
122.7  406.43637
122.6  406.64865
122.5  414.26247
122.4  432.73595
122.3  393.28148
122.2  410.64707
122.1  387.93093
122  367.16008
121.9  389.56761
121.8  407.38177
121.7  402.2771
121.6  413.16937
121.5  388.78373
121.4  376.78061
121.3  390.01692
121.2  352.59068
121.1  358.3624
121  397.11221
120.9  382.1167
120.8  392.15253
120.7  360.98125
120.6  363.09885
120.5  382.50001
120.4  400.83551
120.3  379.49124
120.2  389.78047
120.1  368.29714
120  353.332
119.9  370.49057
119.8  373.25368
119.7  373.88295
119.6  387.88083
119.5  381.46406
119.4  357.81755
119.3  345.81128
119.2  357.80119
119.1  347.26821
119  347.16442
118.9  342.0576
118.8  345.34937
118.7  329.77999
118.6  352.69316
118.5  346.68713
118.4  327.12746
118.3  316.10944
118.2  308.37744
118.1  311.47451
118  341.03744
117.9  327.31458
117.8  317.2695
117.7  317.91067
117.6  288.251
117.5  317.68198
117.4  309.20102
117.3  280.04157
117.2  275.27581
117.1  308.977
117  285.36166
116.9  292.29768
116.8  281.07615
116.7  305.00904
116.6  274.31
116.5  265.33267
116.4  262.00587
116.3  258.41556
116.2  269.599
116.1  245.08673
116  245.59178
115.9  280.56929
115.8  279.92644
115.7  267.0905
115.6  246.26668
115.5  245.21286
115.4  252.24821
115.3  237.83222
115.2  244.8163
115.1  238.50876
115  219.41816
114.9  222.69358
114.8  220.1819
114.7  232.37053
114.6  216.10182
114.5  211.45474
114.4  187.72632
114.3  191.24028
114.2  200.87098
114.1  179.62872
114  196.66819
113.9  198.38111
113.8  189.49412
113.7  175.53881
113.6  199.54133
113.5  179.94583
113.4  170.26549
113.3  159.55279
113.2  162.65819
113.1  175.14848
113  157.29243
112.9  145.94756
112.8  154.08126
112.7  131.29951
112.6  135.60918
112.5  135.69609
112.4  144.63866
112.3  151.48327
112.2  136.60885
112.1  151.62748
112  163.8506
111.9  156.75975
111.8  152.52889
111.7  145.7393
111.6  140.41616
111.5  151.31434
111.4  143.20053
111.3  129.52965
111.2  143.88759
111.1  137.27723
111  142.28174
110.9  127.89646
110.8  124.89746
110.7  138.30729
110.6  131.48165
110.5  133.99648
110.4  121.9935
110.3  134.76918
110.2  124.93232
110.1  147.34927
110  133.65678
109.9  131.68943
109.8  124.23184
109.7  126.4833
109.6  116.90728
109.5  124.25096
109.4  139.68392
109.3  140.05932
109.2  130.28213
109.1  116.98065
109  116.88274
108.9  123.92975
108.8  120.39012
108.7  118.05773
108.6  123.39655
108.5  127.23134
108.4  123.87406
108.3  123.12674
108.2  132.05512
108.1  128.84139
108  123.08043
107.9  127.63265
107.8  124.00087
107.7  132.99463
107.6  138.81483
107.5  132.88971
107.4  140.45312
107.3  132.49315
107.2  129.86658
107.1  134.85056
107  130.84204
106.9  131.73467
106.8  140.53374
106.7  147.09845
106.6  144.54082
106.5  139.71077
106.4  134.33471
106.3  158.14412
106.2  165.99987
106.1  173.89742
106  187.63817
105.9  225.73457
105.8  262.36183
105.7  316.59379
105.6  401.33797
105.5  514.66061
105.4  630.06133
105.3  804.17578
105.2  969.98447
105.1  1215.8388
105  1420.6606
104.9  1694.8857
104.8  1944.29
104.7  2240.2477
104.6  2445.197
104.5  2701.3306
104.4  2774.8223
104.3  2982.2962
104.2  3025.6644
104.1  2987.7743
104  2964.2648
103.9  2695.0288
103.8  2501.5993
103.7  2343.3893
103.6  2035.3649
103.5  1808.9706
103.4  1566.0426
103.3  1355.2851
103.2  1257.2834
103.1  1165.9894
103  1102.2892
102.9  1049.2107
102.8  1044.5521
102.7  965.88171
102.6  958.46912
102.5  883.4503
102.4  777.5176
102.3  702.97716
102.2  611.17083
102.1  485.81247
102  372.99148
101.9  306.36873
101.8  251.00422
101.7  225.54603
101.6  188.15168
101.5  167.22902
101.4  149.3892
101.3  135.88331
101.2  139.05048
101.1  126.54243
101  138.80077
100.9  135.58411
100.8  120.54602
100.7  132.82226
100.6  136.44574
100.5  139.35841
100.4  136.88377
100.3  139.80373
100.2  143.39788
100.1  139.85749
100  132.06298
99.9  127.9279
99.8  143.58754
99.7  142.11696
99.6  131.87916
99.5  132.83113
99.4  122.86219
99.3  120.93606
99.2  131.57105
99.1  122.48229
99  120.29485
98.9  121.825
98.8  122.52639
98.7  121.79062
98.6  130.90779
98.5  136.53133
98.4  120.15766
98.3  123.85996
98.2  123.86802
98.1  138.17086
98  132.20963
97.9  115.74115
97.8  119.191
97.7  127.71019
97.6  124.77435
97.5  120.70797
97.4  118.20043
97.3  120.30615
97.2  134.1829
97.1  121.43819
97  126.12811
96.9  120.67779
96.8  126.05815
96.7  131.47867
96.6  129.77658
96.5  118.22465
96.4  118.23353
96.3  116.83592
96.2  118.98493
96.1  128.46635
96  129.43578
95.9  132.60421
95.8  132.5165
95.7  125.58713
95.6  112.10144
95.5  127.27576
95.4  117.44645
95.3  109.04614
95.2  124.55337
95.1  135.93134
95  128.69949

# Group:             Spectrum Group 15
#
# Region:            C1s
# Acquisition Date:  10/31/19 00:42:29 UTC
# Analysis Method:   XPS
# Analyzer:          Phoibos
# Analyzer Lens:     MediumArea:1.5kV
# Analyzer Slit:     5:7x20\B:open
# Scan Mode:         FixedAnalyzerTransmission
# Curves/Scan:       1
# Values/Curve:      151
# Dwell Time:        0.1
# Excitation Energy: 1486.71
# Binding Energy:    295
# Pass Energy:       10
# Bias Voltage:      90
# Detector Voltage:  1900
# Eff. Workfunction: 4.395
# Source:            Focus
# Comment:           
#
# Cycle: 0
# Number of Scans: 15
#
# Cycle: 0, Curve: 0
# Acquisition Date: 10/31/19 00:42:29 UTC
#
# ColumnLabels: energy counts/s
#
295  722.54852
294.9  690.74941
294.8  687.09383
294.7  660.52101
294.6  664.55896
294.5  684.28629
294.4  692.52097
294.3  678.69876
294.2  672.27079
294.1  717.53049
294  708.50353
293.9  729.27519
293.8  710.3082
293.7  712.95513
293.6  720.21007
293.5  715.31668
293.4  681.23963
293.3  643.0609
293.2  690.97278
293.1  646.22286
293  630.56516
292.9  646.28947
292.8  642.645
292.7  624.00533
292.6  619.2619
292.5  616.1916
292.4  632.13017
292.3  615.17784
292.2  641.00647
292.1  658.96037
292  636.31042
291.9  657.03443
291.8  635.12669
291.7  619.63988
291.6  631.65191
291.5  646.20341
291.4  651.65211
291.3  647.40309
291.2  642.69061
291.1  614.20785
291  625.66704
290.9  645.46299
290.8  654.76358
290.7  677.07919
290.6  643.29298
290.5  655.57939
290.4  664.74325
290.3  647.3512
290.2  680.27125
290.1  667.58559
290  712.08751
289.9  670.23768
289.8  705.78762
289.7  759.195
289.6  713.02191
289.5  682.0119
289.4  711.66708
289.3  740.44045
289.2  734.21635
289.1  712.06926
289  724.7056
288.9  729.95971
288.8  749.84145
288.7  719.76094
288.6  728.18966
288.5  708.40595
288.4  704.72413
288.3  711.49991
288.2  735.67731
288.1  729.78833
288  762.80541
287.9  791.91109
287.8  807.35368
287.7  837.86628
287.6  868.15774
287.5  953.00472
287.4  1005.7557
287.3  1037.2288
287.2  1031.4194
287.1  1029.2102
287  1033.7168
286.9  1091.0375
286.8  1088.6846
286.7  1186.188
286.6  1154.5258
286.5  1275.9505
286.4  1444.2462
286.3  1602.7597
286.2  1867.3032
286.1  2172.6985
286  2550.8397
285.9  2914.714
285.8  3277.0004
285.7  3686.7403
285.6  3984.0786
285.5  4233.2703
285.4  4292.3546
285.3  4187.8602
285.2  4034.7893
285.1  3557.4966
285  3170.4461
284.9  2742.9307
284.8  2299.8534
284.7  1850.9546
284.6  1583.8613
284.5  1232.2686
284.4  1045.5462
284.3  945.99405
284.2  866.29994
284.1  775.37866
284  711.2337
283.9  682.43771
283.8  659.24411
283.7  630.87519
283.6  635.4619
283.5  639.61947
283.4  624.96129
283.3  661.76951
283.2  675.65051
283.1  612.39277
283  611.17973
282.9  609.62186
282.8  611.33067
282.7  619.18965
282.6  630.50062
282.5  631.87653
282.4  632.85297
282.3  633.49506
282.2  609.63044
282.1  608.95007
282  607.22082
281.9  612.80368
281.8  613.18356
281.7  591.53291
281.6  627.60318
281.5  667.46349
281.4  601.89865
281.3  608.01895
281.2  622.82591
281.1  614.4426
281  653.20929
280.9  636.73369
280.8  622.79826
280.7  585.58724
280.6  603.53665
280.5  621.2083
280.4  581.69208
280.3  602.28844
280.2  596.19923
280.1  617.97904
280  635.63324

# Region:            O1s
# Acquisition Date:  10/31/19 00:53:53 UTC
# Analysis Method:   XPS
# Analyzer:          Phoibos
# Analyzer Lens:     MediumArea:1.5kV
# Analyzer Slit:     5:7x20\B:open
# Scan Mode:         FixedAnalyzerTransmission
# Curves/Scan:       1
# Values/Curve:      491
# Dwell Time:        0.1
# Excitation Energy: 1486.71
# Binding Energy:    570
# Pass Energy:       10
# Bias Voltage:      90
# Detector Voltage:  1900
# Eff. Workfunction: 4.395
# Source:            Focus
# Comment:           
#
# Cycle: 0
# Number of Scans: 12
#
# Cycle: 0, Curve: 0
# Acquisition Date: 10/31/19 00:53:53 UTC
#
# ColumnLabels: energy counts/s
#
570  1967.2806
569.9  1954.5029
569.8  1970.6518
569.7  1932.6341
569.6  1962.2667
569.5  1883.5645
569.4  1929.7922
569.3  1973.4479
569.2  1973.6714
569.1  1890.4198
569  1923.3584
568.9  1949.7024
568.8  1970.782
568.7  1946.1138
568.6  1938.1854
568.5  1874.7399
568.4  1954.4299
568.3  1838.2696
568.2  1869.8346
568.1  1827.7297
568  1873.442
567.9  1859.908
567.8  1810.9513
567.7  1896.5049
567.6  1802.3016
567.5  1809.3294
567.4  1826.7551
567.3  1837.0722
567.2  1865.5554
567.1  1830.2824
567  1870.5098
566.9  1902.4085
566.8  1872.3431
566.7  1781.2816
566.6  1852.2944
566.5  1925.8983
566.4  1928.1578
566.3  1881.0964
566.2  1865.6975
566.1  1880.3793
566  1923.5976
565.9  1905.9693
565.8  1883.4153
565.7  1899.1164
565.6  1922.4769
565.5  1878.1869
565.4  1933.5113
565.3  1977.0038
565.2  1883.3601
565.1  1836.657
565  1853.2644
564.9  1842.6732
564.8  1878.31
564.7  1862.9302
564.6  1959.4458
564.5  1940.0165
564.4  1902.2441
564.3  1921.8386
564.2  1967.9973
564.1  1970.1282
564  1965.0265
563.9  1984.9303
563.8  1957.9419
563.7  1922.0572
563.6  1947.3644
563.5  1939.363
563.4  2033.9743
563.3  2037.4466
563.2  2010.0433
563.1  1961.7876
563  1955.2745
562.9  1942.5912
562.8  1990.2621
562.7  1926.9461
562.6  1971.3759
562.5  1916.6535
562.4  1931.2324
562.3  2006.1212
562.2  2029.6864
562.1  2082.1414
562  1998.0383
561.9  2010.9586
561.8  1984.0401
561.7  2034.1279
561.6  1966.3147
561.5  2004.3536
561.4  2076.9763
561.3  2031.2368
561.2  2088.819
561.1  2066.1695
561  2143.105
560.9  2105.9749
560.8  2133.9037
560.7  2060.2912
560.6  2119.9079
560.5  2117.6503
560.4  2054.7656
560.3  2116.6647
560.2  2113.2287
560.1  2120.0344
560  2122.7902
559.9  2182.3433
559.8  2183.2801
559.7  2199.3525
559.6  2169.2638
559.5  2187.2075
559.4  2131.952
559.3  2121.4887
559.2  2151.2911
559.1  2160.7439
559  2167.6333
558.9  2121.1189
558.8  2187.7186
558.7  2256.8665
558.6  2221.851
558.5  2154.4029
558.4  2147.9107
558.3  2208.6587
558.2  2244.4998
558.1  2177.7237
558  2205.3574
557.9  2232.8727
557.8  2289.8612
557.7  2306.5908
557.6  2252.965
557.5  2261.8868
557.4  2288.3947
557.3  2228.5517
557.2  2306.0223
557.1  2241.0126
557  2211.4851
556.9  2270.3817
556.8  2261.9346
556.7  2312.4357
556.6  2361.4706
556.5  2322.4356
556.4  2345.2839
556.3  2445.7294
556.2  2425.4332
556.1  2402.1676
556  2391.8258
555.9  2295.9629
555.8  2281.8434
555.7  2403.4868
555.6  2387.7005
555.5  2379.5174
555.4  2432.8446
555.3  2408.6872
555.2  2393.3587
555.1  2413.5977
555  2363.7538
554.9  2331.2493
554.8  2288.6138
554.7  2310.8647
554.6  2288.7541
554.5  2276.6857
554.4  2205.7353
554.3  2255.9463
554.2  2260.85
554.1  2220.8839
554  2243.6424
553.9  2236.3495
553.8  2195.9279
553.7  2180.5682
553.6  2173.0276
553.5  2148.4639
553.4  2136.0105
553.3  2116.6295
553.2  2181.4707
553.1  2190.0576
553  2111.6389
552.9  2064.9316
552.8  2102.7931
552.7  2046.2443
552.6  2104.2549
552.5  2059.6684
552.4  2052.386
552.3  2013.4244
552.2  2044.6122
552.1  1969.1833
552  1939.0381
551.9  1983.591
551.8  1964.1807
551.7  1921.3514
551.6  1944.2311
551.5  1958.2405
551.4  1941.9816
551.3  1958.8217
551.2  1892.592
551.1  1896.0673
551  1926.2256
550.9  1819.54
550.8  1877.2582
550.7  1914.1093
550.6  1821.5511
550.5  1865.3562
550.4  1848.6202
550.3  1832.0696
550.2  1799.6681
550.1  1811.2355
550  1786.4896
549.9  1872.2281
549.8  1896.0176
549.7  1855.6953
549.6  1785.2865
549.5  1830.0616
549.4  1817.2056
549.3  1781.9307
549.2  1745.4657
549.1  1776.4311
549  1754.2352
548.9  1811.0025
548.8  1765.3284
548.7  1756.1595
548.6  1769.8581
548.5  1771.9689
548.4  1758.818
548.3  1721.3551
548.2  1724.6703
548.1  1748.6433
548  1677.4097
547.9  1663.9033
547.8  1675.987
547.7  1643.7223
547.6  1708.4625
547.5  1668.3288
547.4  1650.8818
547.3  1583.4966
547.2  1536.8244
547.1  1553.2067
547  1605.5749
546.9  1530.5938
546.8  1515.8601
546.7  1501.513
546.6  1553.0923
546.5  1466.291
546.4  1509.2794
546.3  1513.5455
546.2  1516.3721
546.1  1393.7988
546  1429.7027
545.9  1455.4346
545.8  1474.0694
545.7  1417.1893
545.6  1433.107
545.5  1403.6268
545.4  1361.5718
545.3  1394.0962
545.2  1410.2553
545.1  1328.5244
545  1335.6704
544.9  1326.205
544.8  1326.9592
544.7  1284.2283
544.6  1271.7411
544.5  1268.7601
544.4  1240.3687
544.3  1217.338
544.2  1171.4604
544.1  1164.214
544  1215.9586
543.9  1168.141
543.8  1104.6711
543.7  1104.4264
543.6  1079.4239
543.5  1059.6978
543.4  1056.0371
543.3  1052.0703
543.2  1023.7295
543.1  1020.147
543  972.83413
542.9  943.62597
542.8  924.41547
542.7  948.2186
542.6  906.56785
542.5  885.0055
542.4  903.01012
542.3  894.7051
542.2  862.0077
542.1  865.70621
542  850.3617
541.9  871.91746
541.8  852.77002
541.7  854.98776
541.6  825.305
541.5  857.44249
541.4  831.04419
541.3  821.13882
541.2  820.34386
541.1  810.88846
541  813.39
540.9  802.05665
540.8  778.15268
540.7  801.47409
540.6  804.63838
540.5  797.93359
540.4  721.44267
540.3  788.34417
540.2  774.21052
540.1  780.62951
540  763.69517
539.9  767.45348
539.8  768.62317
539.7  765.70154
539.6  780.13075
539.5  794.38022
539.4  780.0316
539.3  757.39882
539.2  739.9492
539.1  775.31322
539  772.06928
538.9  747.72698
538.8  804.91777
538.7  736.12965
538.6  763.91776
538.5  757.12601
538.4  773.10744
538.3  746.98797
538.2  762.1722
538.1  775.06816
538  758.35297
537.9  754.3951
537.8  757.87031
537.7  793.90773
537.6  793.70231
537.5  772.98371
537.4  759.93332
537.3  764.94891
537.2  770.72785
537.1  793.25189
537  831.7364
536.9  824.31871
536.8  820.9876
536.7  801.78928
536.6  805.18595
536.5  814.32452
536.4  801.21774
536.3  826.56146
536.2  837.06711
536.1  830.04099
536  845.0604
535.9  870.75251
535.8  876.77381
535.7  882.56792
535.6  920.49833
535.5  974.43496
535.4  1062.7882
535.3  1163.4088
535.2  1263.5191
535.1  1356.3968
535  1596.9596
534.9  1918.9365
534.8  2264.1285
534.7  2676.4692
534.6  3366.0909
534.5  4099.505
534.4  5036.6599
534.3  6137.4434
534.2  7420.0386
534.1  8863.2958
534  10393.475
533.9  11686.932
533.8  12925.374
533.7  13804.397
533.6  14575.157
533.5  14621.297
533.4  14145.382
533.3  13675.47
533.2  12826.137
533.1  11749.302
533  10426.863
532.9  9127.9481
532.8  8003.0139
532.7  6651.0434
532.6  5685.1074
532.5  4892.1797
532.4  4079.7767
532.3  3447.9778
532.2  2903.0351
532.1  2413.1607
532  2032.1821
531.9  1856.649
531.8  1636.0365
531.7  1445.3816
531.6  1286.7756
531.5  1262.0537
531.4  1204.4016
531.3  1147.523
531.2  1047.9315
531.1  1053.8455
531  990.53716
530.9  967.43913
530.8  909.8883
530.7  883.74845
530.6  873.86779
530.5  876.67367
530.4  847.91021
530.3  841.65884
530.2  820.60331
530.1  789.68191
530  781.32826
529.9  770.49344
529.8  745.2226
529.7  750.22321
529.6  742.60084
529.5  785.71689
529.4  730.51253
529.3  710.19326
529.2  721.30847
529.1  734.6673
529  708.64342
528.9  720.76652
528.8  744.77642
528.7  723.15714
528.6  707.08639
528.5  698.70334
528.4  687.74081
528.3  703.16197
528.2  699.21819
528.1  723.10499
528  699.83951
527.9  703.26493
527.8  696.8394
527.7  724.02379
527.6  721.31881
527.5  649.68437
527.4  673.97245
527.3  679.60869
527.2  700.74639
527.1  739.21276
527  686.72333
526.9  679.56974
526.8  672.25224
526.7  732.73296
526.6  691.80397
526.5  700.70689
526.4  722.08479
526.3  685.35247
526.2  690.9024
526.1  676.39078
526  675.77238
525.9  680.08439
525.8  708.63898
525.7  658.48364
525.6  656.05709
525.5  716.24153
525.4  686.82609
525.3  652.78134
525.2  630.20783
525.1  712.63206
525  711.65186
524.9  708.42258
524.8  668.39266
524.7  676.9325
524.6  700.17994
524.5  700.63924
524.4  684.87757
524.3  673.43331
524.2  713.17902
524.1  684.9134
524  692.59891
523.9  690.61101
523.8  701.64999
523.7  708.28243
523.6  673.23852
523.5  676.74267
523.4  681.8114
523.3  672.2551
523.2  691.36064
523.1  697.9378
523  674.32518
522.9  682.95181
522.8  689.22745
522.7  723.4431
522.6  655.49554
522.5  649.23581
522.4  692.42527
522.3  679.79081
522.2  687.28248
522.1  668.94225
522  689.60387
521.9  700.61946
521.8  712.59553
521.7  695.01306
521.6  675.09269
521.5  656.40195
521.4  667.36421
521.3  695.83666
521.2  677.35186
521.1  663.48191
521  651.4704

# Region:            Si2p
# Acquisition Date:  10/31/19 00:58:55 UTC
# Analysis Method:   XPS
# Analyzer:          Phoibos
# Analyzer Lens:     MediumArea:1.5kV
# Analyzer Slit:     5:7x20\B:open
# Scan Mode:         FixedAnalyzerTransmission
# Curves/Scan:       1
# Values/Curve:      161
# Dwell Time:        0.1
# Excitation Energy: 1486.71
# Binding Energy:    108
# Pass Energy:       10
# Bias Voltage:      90
# Detector Voltage:  1900
# Eff. Workfunction: 4.395
# Source:            Focus
# Comment:           
#
# Cycle: 0
# Number of Scans: 15
#
# Cycle: 0, Curve: 0
# Acquisition Date: 10/31/19 00:58:55 UTC
#
# ColumnLabels: energy counts/s
#
108  122.75653
107.9  115.07566
107.8  112.69854
107.7  113.35197
107.6  115.57477
107.5  112.51412
107.4  122.27712
107.3  115.56977
107.2  118.25643
107.1  110.8798
107  126.00973
106.9  125.42901
106.8  120.50708
106.7  121.80341
106.6  128.11729
106.5  136.44056
106.4  128.02852
106.3  132.94915
106.2  151.69893
106.1  167.17877
106  179.25768
105.9  217.42601
105.8  260.81048
105.7  330.01992
105.6  390.34286
105.5  483.58354
105.4  621.19705
105.3  757.80275
105.2  932.66079
105.1  1134.7055
105  1397.4314
104.9  1592.0781
104.8  1830.8278
104.7  2046.5079
104.6  2296.3894
104.5  2515.6004
104.4  2604.2082
104.3  2715.2614
104.2  2822.4031
104.1  2691.7544
104  2575.4977
103.9  2536.7749
103.8  2219.8895
103.7  2061.4099
103.6  1766.8408
103.5  1590.699
103.4  1396.7592
103.3  1256.6177
103.2  1096.1291
103.1  1039.8777
103  1016.3906
102.9  923.2886
102.8  903.51899
102.7  902.30689
102.6  858.6895
102.5  804.0286
102.4  741.14122
102.3  627.48374
102.2  554.9169
102.1  445.4843
102  373.87513
101.9  279.65097
101.8  222.31223
101.7  190.11147
101.6  175.55978
101.5  152.86613
101.4  154.45316
101.3  149.83927
101.2  142.71845
101.1  124.85912
101  117.52856
100.9  137.37802
100.8  116.64258
100.7  116.71167
100.6  132.12558
100.5  131.74726
100.4  123.05078
100.3  125.42168
100.2  129.7228
100.1  125.79384
100  121.3938
99.9  123.03748
99.8  120.35826
99.7  125.88768
99.6  122.92081
99.5  115.77171
99.4  111.73682
99.3  109.15211
99.2  107.28862
99.1  116.45338
99  106.67722
98.9  117.41234
98.8  122.85465
98.7  115.59946
98.6  110.47694
98.5  112.43815
98.4  115.17837
98.3  113.88306
98.2  106.96755
98.1  112.35895
98  119.32599
97.9  121.13234
97.8  113.82239
97.7  116.57268
97.6  108.96348
97.5  101.32397
97.4  93.348616
97.3  110.2133
97.2  111.17438
97.1  92.898965
97  105.30952
96.9  94.614729
96.8  103.85657
96.7  108.7363
96.6  112.61032
96.5  110.93544
96.4  122.32018
96.3  105.2718
96.2  123.66914
96.1  123.23744
96  110.1832
95.9  115.4519
95.8  106.92531
95.7  111.26547
95.6  113.69783
95.5  103.14566
95.4  114.75675
95.3  104.23055
95.2  113.10525
95.1  115.54033
95  115.13381
94.9  107.40947
94.8  103.83598
94.7  112.72128
94.6  110.95947
94.5  108.10806
94.4  101.63861
94.3  101.34598
94.2  107.31064
94.1  116.98246
94  112.72709
93.9  96.151325
93.8  116.71178
93.7  104.67964
93.6  109.97035
93.5  116.86914
93.4  118.5384
93.3  110.84953
93.2  110.52815
93.1  111.48015
93  116.08605
92.9  114.88434
92.8  111.24926
92.7  113.66682
92.6  107.16239
92.5  120.86911
92.4  109.50718
92.3  118.62596
92.2  115.57723
92.1  114.92159
92  115.32526

# Group:             Spectrum Group 25
#
# Region:            C1s
# Acquisition Date:  10/31/19 01:05:19 UTC
# Analysis Method:   XPS
# Analyzer:          Phoibos
# Analyzer Lens:     MediumArea:1.5kV
# Analyzer Slit:     5:7x20\B:open
# Scan Mode:         FixedAnalyzerTransmission
# Curves/Scan:       1
# Values/Curve:      151
# Dwell Time:        0.1
# Excitation Energy: 1486.71
# Binding Energy:    295
# Pass Energy:       10
# Bias Voltage:      90
# Detector Voltage:  1900
# Eff. Workfunction: 4.395
# Source:            Focus
# Comment:           
#
# Cycle: 0
# Number of Scans: 10
#
# Cycle: 0, Curve: 0
# Acquisition Date: 10/31/19 01:05:19 UTC
#
# ColumnLabels: energy counts/s
#
295  608.79833
294.9  621.50175
294.8  618.56758
294.7  596.68952
294.6  605.9203
294.5  622.95104
294.4  596.21536
294.3  601.64562
294.2  615.86253
294.1  589.92676
294  629.89735
293.9  614.13201
293.8  597.024
293.7  595.04244
293.6  594.69497
293.5  581.69257
293.4  567.35349
293.3  570.79355
293.2  571.15283
293.1  607.00871
293  616.41768
292.9  543.26761
292.8  567.39938
292.7  547.52897
292.6  552.50532
292.5  572.32439
292.4  568.95658
292.3  605.65633
292.2  502.99044
292.1  523.28901
292  552.60293
291.9  555.91544
291.8  570.64942
291.7  542.60947
291.6  527.19491
291.5  569.61081
291.4  561.50342
291.3  580.85239
291.2  574.80655
291.1  548.36344
291  549.26372
290.9  589.72772
290.8  554.63552
290.7  548.58666
290.6  561.17277
290.5  548.57402
290.4  555.81261
290.3  563.50117
290.2  593.41904
290.1  621.02391
290  600.70133
289.9  609.63432
289.8  588.12664
289.7  578.53268
289.6  651.9521
289.5  650.55722
289.4  634.9646
289.3  620.00324
289.2  630.59013
289.1  641.42191
289  637.89148
288.9  628.29496
288.8  645.93077
288.7  639.4255
288.6  623.21256
288.5  580.24178
288.4  612.86454
288.3  641.97268
288.2  658.21242
288.1  661.98967
288  644.7
287.9  689.84203
287.8  720.71778
287.7  719.78528
287.6  785.96406
287.5  806.40102
287.4  821.57108
287.3  869.15753
287.2  853.82537
287.1  930.78878
287  881.46442
286.9  915.97166
286.8  944.73847
286.7  959.68151
286.6  1028.4927
286.5  1133.4525
286.4  1177.0618
286.3  1302.5156
286.2  1636.2592
286.1  1878.371
286  2227.167
285.9  2583.7509
285.8  2792.9115
285.7  3117.3209
285.6  3430.6101
285.5  3665.6361
285.4  3751.9955
285.3  3771.3583
285.2  3608.2844
285.1  3230.4661
285  2948.9964
284.9  2564.9054
284.8  2193.1138
284.7  1842.5965
284.6  1478.936
284.5  1184.0943
284.4  1036.161
284.3  870.19419
284.2  757.572
284.1  728.13372
284  665.07716
283.9  630.95002
283.8  602.08347
283.7  567.17631
283.6  560.9497
283.5  540.87174
283.4  560.73119
283.3  557.81122
283.2  553.03097
283.1  581.38302
283  555.90158
282.9  526.41714
282.8  545.19319
282.7  522.82904
282.6  548.6042
282.5  543.92647
282.4  548.9841
282.3  540.00736
282.2  537.08509
282.1  540.92113
282  539.44768
281.9  519.255
281.8  531.36185
281.7  494.66138
281.6  493.43229
281.5  532.00847
281.4  519.32502
281.3  529.75594
281.2  567.85478
281.1  539.88108
281  514.94484
280.9  516.79948
280.8  521.43196
280.7  548.54128
280.6  563.12973
280.5  543.52477
280.4  539.87429
280.3  506.98921
280.2  501.00487
280.1  550.23309
280  543.71277

# Region:            O1s
# Acquisition Date:  10/31/19 01:09:39 UTC
# Analysis Method:   XPS
# Analyzer:          Phoibos
# Analyzer Lens:     MediumArea:1.5kV
# Analyzer Slit:     5:7x20\B:open
# Scan Mode:         FixedAnalyzerTransmission
# Curves/Scan:       1
# Values/Curve:      211
# Dwell Time:        0.1
# Excitation Energy: 1486.71
# Binding Energy:    542
# Pass Energy:       10
# Bias Voltage:      90
# Detector Voltage:  1900
# Eff. Workfunction: 4.395
# Source:            Focus
# Comment:           
#
# Cycle: 0
# Number of Scans: 10
#
# Cycle: 0, Curve: 0
# Acquisition Date: 10/31/19 01:09:39 UTC
#
# ColumnLabels: energy counts/s
#
542  719.59754
541.9  724.4611
541.8  734.3235
541.7  754.5652
541.6  697.79609
541.5  695.81437
541.4  708.55818
541.3  708.48556
541.2  673.80449
541.1  696.36695
541  691.76063
540.9  649.20248
540.8  647.72222
540.7  698.69968
540.6  690.05929
540.5  686.60483
540.4  665.12264
540.3  679.47344
540.2  649.23826
540.1  660.70561
540  669.5079
539.9  659.01757
539.8  681.43839
539.7  657.96886
539.6  680.38505
539.5  616.06525
539.4  651.99208
539.3  654.58314
539.2  631.48405
539.1  603.07458
539  627.54308
538.9  657.7838
538.8  648.41775
538.7  619.87526
538.6  598.0834
538.5  625.15821
538.4  705.18508
538.3  630.29615
538.2  647.77557
538.1  629.97379
538  611.55392
537.9  679.81916
537.8  667.42687
537.7  639.66168
537.6  671.47465
537.5  648.41201
537.4  677.42691
537.3  701.09858
537.2  668.98891
537.1  679.32234
537  671.81017
536.9  686.60495
536.8  654.85641
536.7  676.45557
536.6  656.95209
536.5  672.05757
536.4  680.58418
536.3  715.52063
536.2  725.78582
536.1  714.54938
536  673.00299
535.9  705.9121
535.8  773.23731
535.7  751.83685
535.6  778.26813
535.5  830.90656
535.4  863.11019
535.3  920.56073
535.2  1004.4589
535.1  1119.648
535  1309.772
534.9  1600.8747
534.8  1864.6008
534.7  2214.4051
534.6  2699.7066
534.5  3299.0385
534.4  4060.4366
534.3  5041.2478
534.2  6007.2312
534.1  7156.6746
534  8493.5643
533.9  9558.191
533.8  10365.986
533.7  11338.177
533.6  11842.529
533.5  12104.208
533.4  12020.949
533.3  11579.781
533.2  11019.986
533.1  10157.662
533  9110.4032
532.9  8113.0189
532.8  7082.3013
532.7  6189.2651
532.6  5255.5501
532.5  4373.2608
532.4  3627.8778
532.3  3084.5245
532.2  2576.7663
532.1  2205.4203
532  1797.8048
531.9  1558.1476
531.8  1406.9419
531.7  1317.4741
531.6  1158.8338
531.5  1092.2244
531.4  1045.6816
531.3  960.72016
531.2  952.3244
531.1  904.55764
531  845.0227
530.9  851.80099
530.8  852.71479
530.7  733.21654
530.6  709.09156
530.5  709.9609
530.4  705.53064
530.3  698.55624
530.2  711.64327
530.1  693.85277
530  641.32816
529.9  691.45355
529.8  698.96421
529.7  665.60435
529.6  649.71998
529.5  652.79478
529.4  637.91268
529.3  668.03395
529.2  614.66872
529.1  651.79188
529  609.33106
528.9  590.17048
528.8  581.39729
528.7  618.38659
528.6  616.06107
528.5  624.73584
528.4  634.29354
528.3  630.06139
528.2  548.16488
528.1  617.38228
528  582.70731
527.9  619.47681
527.8  627.14855
527.7  612.0626
527.6  575.08698
527.5  614.84427
527.4  578.02396
527.3  576.78886
527.2  593.99193
527.1  585.47191
527  602.78772
526.9  613.50895
526.8  650.96591
526.7  632.51181
526.6  581.27846
526.5  607.37565
526.4  552.55514
526.3  569.4343
526.2  629.66657
526.1  572.19336
526  573.73399
525.9  580.4263
525.8  585.59392
525.7  603.87538
525.6  627.39601
525.5  579.2728
525.4  576.81231
525.3  545.0811
525.2  570.94354
525.1  600.56596
525  604.30794
524.9  592.53773
524.8  600.04416
524.7  583.57046
524.6  589.6005
524.5  580.79507
524.4  592.69925
524.3  578.73336
524.2  582.3369
524.1  598.01529
524  569.26955
523.9  575.38114
523.8  577.54833
523.7  593.09195
523.6  614.07849
523.5  582.21906
523.4  583.09608
523.3  600.65782
523.2  566.90544
523.1  577.19056
523  592.58023
522.9  576.20757
522.8  617.88698
522.7  629.12461
522.6  562.54242
522.5  572.85652
522.4  580.60487
522.3  581.14558
522.2  565.7995
522.1  568.07867
522  559.59377
521.9  564.53947
521.8  547.3748
521.7  524.66236
521.6  567.41406
521.5  581.46819
521.4  562.46011
521.3  623.15028
521.2  604.71252
521.1  594.07886
521  594.75663

# Region:            Si2p
# Acquisition Date:  10/31/19 01:14:41 UTC
# Analysis Method:   XPS
# Analyzer:          Phoibos
# Analyzer Lens:     MediumArea:1.5kV
# Analyzer Slit:     5:7x20\B:open
# Scan Mode:         FixedAnalyzerTransmission
# Curves/Scan:       1
# Values/Curve:      161
# Dwell Time:        0.1
# Excitation Energy: 1486.71
# Binding Energy:    108
# Pass Energy:       10
# Bias Voltage:      90
# Detector Voltage:  1900
# Eff. Workfunction: 4.395
# Source:            Focus
# Comment:           
#
# Cycle: 0
# Number of Scans: 15
#
# Cycle: 0, Curve: 0
# Acquisition Date: 10/31/19 01:14:41 UTC
#
# ColumnLabels: energy counts/s
#
108  106.19051
107.9  112.02647
107.8  108.60318
107.7  108.73292
107.6  106.10589
107.5  107.88507
107.4  116.52365
107.3  117.68599
107.2  105.15101
107.1  106.12676
107  99.818406
106.9  95.163592
106.8  107.9911
106.7  115.41985
106.6  115.92817
106.5  105.3144
106.4  110.20312
106.3  118.89462
106.2  150.17445
106.1  163.10643
106  152.95265
105.9  186.44494
105.8  210.01485
105.7  262.20482
105.6  322.34624
105.5  398.99599
105.4  517.96324
105.3  632.70884
105.2  745.91085
105.1  917.85802
105  1104.1626
104.9  1325.473
104.8  1555.4917
104.7  1768.9032
104.6  1978.7349
104.5  2142.6144
104.4  2275.517
104.3  2392.1453
104.2  2366.6369
104.1  2292.2119
104  2365.139
103.9  2200.9124
103.8  2050.8616
103.7  1851.0716
103.6  1654.7373
103.5  1425.0831
103.4  1272.6798
103.3  1161.1947
103.2  1048.7312
103.1  954.5239
103  913.67901
102.9  887.65816
102.8  816.91881
102.7  886.83498
102.6  851.61894
102.5  766.25917
102.4  695.99182
102.3  641.56599
102.2  526.46966
102.1  446.088
102  361.62682
101.9  281.70439
101.8  226.55582
101.7  197.66273
101.6  157.63869
101.5  142.52438
101.4  127.91775
101.3  123.61417
101.2  120.85481
101.1  109.63009
101  100.43989
100.9  106.27802
100.8  115.19634
100.7  112.19988
100.6  104.36752
100.5  109.00534
100.4  125.53744
100.3  114.30086
100.2  115.23804
100.1  111.0522
100  101.9823
99.9  119.32676
99.8  117.96711
99.7  107.44249
99.6  117.55108
99.5  101.77367
99.4  94.62379
99.3  91.633052
99.2  107.13577
99.1  104.4886
99  113.11059
98.9  98.947284
98.8  97.357497
98.7  89.471089
98.6  96.264731
98.5  103.45106
98.4  102.07925
98.3  110.03294
98.2  109.57266
98.1  93.275529
98  99.171168
97.9  101.08415
97.8  92.794711
97.7  90.396122
97.6  98.885957
97.5  101.90659
97.4  106.1383
97.3  109.65021
97.2  91.397747
97.1  103.84164
97  105.46629
96.9  110.8888
96.8  103.37983
96.7  98.300244
96.6  103.88236
96.5  95.067495
96.4  85.824824
96.3  100.16344
96.2  99.869593
96.1  89.383287
96  95.965106
95.9  105.22943
95.8  104.16036
95.7  98.117848
95.6  96.344502
95.5  97.444199
95.4  94.485276
95.3  95.433382
95.2  99.801746
95.1  103.79051
95  99.913857
94.9  98.936617
94.8  99.853191
94.7  103.81128
94.6  106.54543
94.5  106.5795
94.4  89.455695
94.3  112.98905
94.2  104.69203
94.1  105.7127
94  88.99464
93.9  90.690641
93.8  107.40302
93.7  107.87289
93.6  96.091467
93.5  109.20915
93.4  109.85025
93.3  93.144879
93.2  82.991946
93.1  89.674831
93  108.4496
92.9  110.74826
92.8  100.7489
92.7  97.622385
92.6  97.898856
92.5  99.382559
92.4  92.402366
92.3  107.40607
92.2  105.4354
92.1  113.36037
92  107.51524

# Group:             Spectrum Group 35
#
# Region:            C1s
# Acquisition Date:  10/31/19 01:25:13 UTC
# Analysis Method:   XPS
# Analyzer:          Phoibos
# Analyzer Lens:     MediumArea:1.5kV
# Analyzer Slit:     5:7x20\B:open
# Scan Mode:         FixedAnalyzerTransmission
# Curves/Scan:       1
# Values/Curve:      151
# Dwell Time:        0.1
# Excitation Energy: 1486.71
# Binding Energy:    295
# Pass Energy:       10
# Bias Voltage:      90
# Detector Voltage:  1900
# Eff. Workfunction: 4.395
# Source:            Focus
# Comment:           
#
# Cycle: 0
# Number of Scans: 10
#
# Cycle: 0, Curve: 0
# Acquisition Date: 10/31/19 01:25:13 UTC
#
# ColumnLabels: energy counts/s
#
295  458.95282
294.9  461.02868
294.8  426.04701
294.7  450.59396
294.6  469.32251
294.5  442.6121
294.4  447.30235
294.3  468.6774
294.2  460.54906
294.1  447.13801
294  464.58911
293.9  470.94947
293.8  452.17853
293.7  480.47724
293.6  466.591
293.5  487.42339
293.4  448.17691
293.3  432.69759
293.2  441.60098
293.1  451.81682
293  423.62289
292.9  432.84298
292.8  481.80262
292.7  461.29394
292.6  414.86181
292.5  438.91778
292.4  390.44385
292.3  424.7749
292.2  439.97226
292.1  413.74875
292  422.90745
291.9  396.37964
291.8  401.23573
291.7  434.87752
291.6  450.31342
291.5  440.74535
291.4  438.46915
291.3  417.53362
291.2  410.5054
291.1  395.68646
291  403.42313
290.9  429.46062
290.8  421.70022
290.7  370.89517
290.6  371.45694
290.5  398.20119
290.4  389.68552
290.3  407.31657
290.2  433.86509
290.1  453.39108
290  455.79064
289.9  434.07949
289.8  442.56885
289.7  479.98834
289.6  452.39763
289.5  475.22038
289.4  439.05967
289.3  464.89085
289.2  458.31606
289.1  471.06994
289  507.67045
288.9  466.03328
288.8  477.59007
288.7  487.91348
288.6  499.06909
288.5  442.69677
288.4  458.90814
288.3  460.5629
288.2  476.9405
288.1  505.53359
288  496.23391
287.9  498.10754
287.8  549.71478
287.7  539.29379
287.6  559.34979
287.5  604.83119
287.4  614.92271
287.3  594.22589
287.2  640.2172
287.1  689.56135
287  698.17474
286.9  668.3686
286.8  702.57887
286.7  726.3038
286.6  758.106
286.5  853.73083
286.4  941.38969
286.3  1059.7578
286.2  1190.5336
286.1  1372.0973
286  1675.0899
285.9  1886.9279
285.8  2156.2309
285.7  2432.7293
285.6  2672.6494
285.5  2898.9389
285.4  2893.0241
285.3  2900.557
285.2  2839.1614
285.1  2668.7596
285  2492.1868
284.9  2161.2283
284.8  1871.2873
284.7  1616.1107
284.6  1311.3541
284.5  1034.38
284.4  878.8853
284.3  720.38167
284.2  645.04413
284.1  569.38529
284  502.20158
283.9  478.29514
283.8  457.97434
283.7  452.00914
283.6  432.08628
283.5  421.36989
283.4  414.26398
283.3  410.83488
283.2  402.40693
283.1  398.07728
283  403.78812
282.9  412.53383
282.8  397.33059
282.7  402.45585
282.6  408.20148
282.5  385.4874
282.4  416.73357
282.3  438.39922
282.2  428.34372
282.1  425.60577
282  388.33384
281.9  380.95347
281.8  390.9963
281.7  402.7514
281.6  401.39276
281.5  404.67497
281.4  448.20812
281.3  435.49385
281.2  419.32661
281.1  360.32824
281  405.1819
280.9  436.73338
280.8  415.0469
280.7  396.8174
280.6  422.80371
280.5  390.65553
280.4  396.83529
280.3  421.34087
280.2  421.49742
280.1  374.84929
280  414.15123

# Region:            O1s
# Acquisition Date:  10/31/19 01:29:33 UTC
# Analysis Method:   XPS
# Analyzer:          Phoibos
# Analyzer Lens:     MediumArea:1.5kV
# Analyzer Slit:     5:7x20\B:open
# Scan Mode:         FixedAnalyzerTransmission
# Curves/Scan:       1
# Values/Curve:      211
# Dwell Time:        0.1
# Excitation Energy: 1486.71
# Binding Energy:    542
# Pass Energy:       10
# Bias Voltage:      90
# Detector Voltage:  1900
# Eff. Workfunction: 4.395
# Source:            Focus
# Comment:           
#
# Cycle: 0
# Number of Scans: 10
#
# Cycle: 0, Curve: 0
# Acquisition Date: 10/31/19 01:29:33 UTC
#
# ColumnLabels: energy counts/s
#
542  554.28611
541.9  554.7449
541.8  567.98768
541.7  569.47636
541.6  561.72686
541.5  549.77581
541.4  543.09818
541.3  551.85014
541.2  548.65648
541.1  547.19658
541  535.55124
540.9  531.12468
540.8  516.57868
540.7  508.31001
540.6  489.11472
540.5  499.69041
540.4  501.48349
540.3  490.52298
540.2  522.2852
540.1  517.38619
540  471.99993
539.9  457.83643
539.8  492.8525
539.7  504.86453
539.6  509.82027
539.5  542.16772
539.4  489.24974
539.3  492.5623
539.2  531.01083
539.1  514.2935
539  485.70465
538.9  489.50989
538.8  495.68885
538.7  508.72035
538.6  491.85894
538.5  491.3951
538.4  514.89282
538.3  481.49113
538.2  502.51224
538.1  483.15198
538  496.71961
537.9  480.74024
537.8  485.77819
537.7  482.79787
537.6  491.14653
537.5  495.26731
537.4  494.08055
537.3  529.13084
537.2  525.28061
537.1  506.80158
537  514.85075
536.9  519.51347
536.8  532.49937
536.7  541.57304
536.6  557.89996
536.5  527.04119
536.4  541.81701
536.3  536.76285
536.2  535.29391
536.1  516.29554
536  541.37889
535.9  527.44626
535.8  584.24962
535.7  590.58184
535.6  575.23267
535.5  581.80576
535.4  631.93194
535.3  702.96268
535.2  754.01477
535.1  833.32818
535  932.48863
534.9  1113.0126
534.8  1255.0851
534.7  1479.5624
534.6  1904.8944
534.5  2354.1819
534.4  2779.7406
534.3  3487.7099
534.2  4323.9947
534.1  5175.4216
534  5865.3817
533.9  6671.6431
533.8  7297.8931
533.7  7968.6648
533.6  8663.1042
533.5  8978.6421
533.4  9012.5756
533.3  8854.3669
533.2  8288.5922
533.1  7821.8475
533  7121.8118
532.9  6472.3202
532.8  5698.7176
532.7  4948.7448
532.6  4415.7836
532.5  3738.5476
532.4  3067.1749
532.3  2747.7325
532.2  2221.6564
532.1  1901.8048
532  1574.1933
531.9  1343.0507
531.8  1149.8902
531.7  1037.0679
531.6  847.64987
531.5  865.99281
531.4  814.64161
531.3  755.50662
531.2  733.36439
531.1  672.18045
531  610.41107
530.9  658.10558
530.8  661.05966
530.7  605.45469
530.6  573.78101
530.5  602.7347
530.4  584.97403
530.3  564.11935
530.2  539.17248
530.1  539.17053
530  523.40224
529.9  495.99831
529.8  503.25593
529.7  497.10204
529.6  513.74912
529.5  502.10502
529.4  478.0153
529.3  498.35087
529.2  502.56474
529.1  480.8216
529  453.46996
528.9  437.81934
528.8  439.68004
528.7  486.52613
528.6  489.6434
528.5  460.06472
528.4  480.35402
528.3  466.41706
528.2  439.13556
528.1  473.48726
528  467.65882
527.9  431.75107
527.8  441.36014
527.7  454.85245
527.6  467.90695
527.5  452.54608
527.4  449.16207
527.3  440.08303
527.2  410.16739
527.1  423.76139
527  429.52389
526.9  468.44254
526.8  430.33315
526.7  469.32065
526.6  446.56663
526.5  454.39011
526.4  468.18998
526.3  447.15738
526.2  456.71406
526.1  483.83016
526  439.43603
525.9  439.91847
525.8  445.97607
525.7  424.729
525.6  443.37495
525.5  470.84765
525.4  456.958
525.3  466.67778
525.2  446.25263
525.1  447.41541
525  452.82432
524.9  490.7619
524.8  466.39328
524.7  498.05214
524.6  473.35946
524.5  467.92554
524.4  475.57644
524.3  442.73565
524.2  482.69485
524.1  483.37947
524  457.58848
523.9  447.85736
523.8  475.54687
523.7  436.04782
523.6  458.93535
523.5  458.55855
523.4  460.79393
523.3  422.10218
523.2  454.85505
523.1  453.45513
523  437.08525
522.9  479.74221
522.8  438.19296
522.7  456.51426
522.6  467.13206
522.5  420.71638
522.4  463.01545
522.3  451.25686
522.2  426.61527
522.1  451.03609
522  466.0396
521.9  418.89921
521.8  436.85216
521.7  424.1562
521.6  437.93472
521.5  399.69948
521.4  418.57436
521.3  427.12483
521.2  438.88232
521.1  456.06794
521  449.05278

# Region:            Si2p
# Acquisition Date:  10/31/19 01:34:36 UTC
# Analysis Method:   XPS
# Analyzer:          Phoibos
# Analyzer Lens:     MediumArea:1.5kV
# Analyzer Slit:     5:7x20\B:open
# Scan Mode:         FixedAnalyzerTransmission
# Curves/Scan:       1
# Values/Curve:      161
# Dwell Time:        0.1
# Excitation Energy: 1486.71
# Binding Energy:    108
# Pass Energy:       10
# Bias Voltage:      90
# Detector Voltage:  1900
# Eff. Workfunction: 4.395
# Source:            Focus
# Comment:           
#
# Cycle: 0
# Number of Scans: 15
#
# Cycle: 0, Curve: 0
# Acquisition Date: 10/31/19 01:34:36 UTC
#
# ColumnLabels: energy counts/s
#
108  78.328741
107.9  81.757587
107.8  82.66369
107.7  85.409399
107.6  98.119838
107.5  86.444799
107.4  79.884601
107.3  84.508481
107.2  92.721153
107.1  84.422057
107  77.189722
106.9  91.837851
106.8  88.411945
106.7  78.960245
106.6  92.312806
106.5  80.494981
106.4  86.331762
106.3  93.510483
106.2  99.316537
106.1  108.71667
106  125.43472
105.9  130.01661
105.8  150.61152
105.7  180.30171
105.6  242.13574
105.5  292.47761
105.4  359.13843
105.3  441.88701
105.2  545.54352
105.1  667.26991
105  769.75034
104.9  896.81313
104.8  1091.2115
104.7  1176.2424
104.6  1304.0527
104.5  1525.1329
104.4  1608.5309
104.3  1595.9933
104.2  1666.935
104.1  1651.176
104  1693.2605
103.9  1614.1737
103.8  1530.6097
103.7  1391.1178
103.6  1271.0749
103.5  1182.4923
103.4  978.32516
103.3  878.66314
103.2  840.97249
103.1  776.91508
103  693.46194
102.9  692.94243
102.8  686.2117
102.7  661.15345
102.6  655.95006
102.5  625.1729
102.4  572.25896
102.3  505.84709
102.2  459.30969
102.1  397.27159
102  302.19738
101.9  239.27189
101.8  211.19436
101.7  171.69525
101.6  137.51153
101.5  111.4869
101.4  108.73525
101.3  107.72929
101.2  94.058447
101.1  91.952432
101  89.156056
100.9  88.565031
100.8  92.900027
100.7  81.241435
100.6  88.110234
100.5  79.661005
100.4  81.814588
100.3  95.869106
100.2  81.911173
100.1  84.342878
100  92.838681
99.9  99.503292
99.8  94.000381
99.7  85.012825
99.6  91.646604
99.5  80.982747
99.4  79.401334
99.3  75.397014
99.2  64.593199
99.1  71.378063
99  83.564526
98.9  85.256533
98.8  77.528935
98.7  82.187742
98.6  62.339105
98.5  67.626445
98.4  83.204778
98.3  87.04739
98.2  78.050564
98.1  67.099004
98  68.048788
97.9  75.850076
97.8  69.20087
97.7  82.494411
97.6  87.052377
97.5  77.556884
97.4  59.247542
97.3  81.07927
97.2  81.193709
97.1  82.521716
97  77.523602
96.9  78.375445
96.8  77.116419
96.7  72.281223
96.6  59.916729
96.5  75.401771
96.4  74.561471
96.3  83.078315
96.2  80.883146
96.1  77.404771
96  82.830991
95.9  75.322211
95.8  71.579459
95.7  71.476767
95.6  80.973691
95.5  72.205152
95.4  75.830242
95.3  87.44121
95.2  75.227438
95.1  77.121253
95  76.831167
94.9  77.867074
94.8  80.230002
94.7  90.604135
94.6  81.590825
94.5  75.877501
94.4  77.799668
94.3  80.454251
94.2  64.438741
94.1  67.902145
94  78.577194
93.9  80.780081
93.8  86.013411
93.7  85.201141
93.6  81.694532
93.5  76.397396
93.4  82.523014
93.3  81.040527
93.2  69.576213
93.1  77.859367
93  80.98612
92.9  82.940882
92.8  79.974287
92.7  75.115111
92.6  79.028896
92.5  75.714096
92.4  69.453167
92.3  80.262895
92.2  95.978731
92.1  79.515253
92  71.862492

# Group:             Spectrum Group 45
#
# Region:            C1s
# Acquisition Date:  10/31/19 01:41:57 UTC
# Analysis Method:   XPS
# Analyzer:          Phoibos
# Analyzer Lens:     MediumArea:1.5kV
# Analyzer Slit:     5:7x20\B:open
# Scan Mode:         FixedAnalyzerTransmission
# Curves/Scan:       1
# Values/Curve:      151
# Dwell Time:        0.1
# Excitation Energy: 1486.71
# Binding Energy:    295
# Pass Energy:       10
# Bias Voltage:      90
# Detector Voltage:  1900
# Eff. Workfunction: 4.395
# Source:            Focus
# Comment:           
#
# Cycle: 0
# Number of Scans: 10
#
# Cycle: 0, Curve: 0
# Acquisition Date: 10/31/19 01:41:57 UTC
#
# ColumnLabels: energy counts/s
#
295  377.13524
294.9  393.06089
294.8  386.11398
294.7  419.26677
294.6  411.23373
294.5  382.46537
294.4  396.03776
294.3  427.22068
294.2  400.25419
294.1  403.15067
294  428.55907
293.9  369.14877
293.8  390.01009
293.7  410.54843
293.6  398.42999
293.5  394.03779
293.4  406.41076
293.3  387.15778
293.2  372.48085
293.1  383.34071
293  336.59535
292.9  370.23039
292.8  355.35486
292.7  365.47301
292.6  372.92846
292.5  381.10694
292.4  365.24246
292.3  341.28636
292.2  364.77167
292.1  371.72643
292  371.69016
291.9  323.54667
291.8  339.88022
291.7  320.54251
291.6  328.15271
291.5  363.11436
291.4  344.88967
291.3  344.94694
291.2  334.86483
291.1  336.71845
291  346.3842
290.9  372.53616
290.8  350.4836
290.7  389.14289
290.6  359.43693
290.5  372.48716
290.4  372.17281
290.3  346.77354
290.2  374.4149
290.1  383.70837
290  378.52221
289.9  380.75371
289.8  386.5644
289.7  367.92517
289.6  387.77835
289.5  390.46141
289.4  393.79909
289.3  373.35351
289.2  360.63274
289.1  388.68347
289  412.96535
288.9  419.94563
288.8  433.00977
288.7  371.99172
288.6  366.53933
288.5  397.47712
288.4  400.07115
288.3  410.82042
288.2  383.88866
288.1  394.52922
288  430.86639
287.9  441.14715
287.8  469.77044
287.7  459.9214
287.6  504.38876
287.5  548.48286
287.4  561.20934
287.3  555.88329
287.2  559.57115
287.1  584.55943
287  596.15524
286.9  584.83957
286.8  635.53258
286.7  643.22852
286.6  710.29585
286.5  802.43083
286.4  877.12107
286.3  996.0744
286.2  1114.2894
286.1  1363.1588
286  1595.639
285.9  1853.9794
285.8  2078.3369
285.7  2316.1816
285.6  2543.5644
285.5  2650.5693
285.4  2764.238
285.3  2849.273
285.2  2747.2805
285.1  2560.825
285  2361.8584
284.9  1980.6381
284.8  1668.3451
284.7  1447.9901
284.6  1153.5044
284.5  954.07777
284.4  762.51015
284.3  626.06536
284.2  517.97819
284.1  465.28561
284  420.35962
283.9  412.82543
283.8  399.98475
283.7  387.82955
283.6  359.45335
283.5  354.11894
283.4  352.38894
283.3  339.58314
283.2  357.16201
283.1  343.78458
283  341.24949
282.9  362.49269
282.8  379.50772
282.7  357.41738
282.6  358.405
282.5  315.05378
282.4  317.17785
282.3  345.2037
282.2  354.70641
282.1  374.89466
282  333.29728
281.9  312.39647
281.8  346.87474
281.7  345.79913
281.6  335.79648
281.5  318.17239
281.4  299.64666
281.3  349.75628
281.2  374.49394
281.1  339.79192
281  333.43055
280.9  361.18605
280.8  366.58679
280.7  338.31693
280.6  319.41631
280.5  326.29587
280.4  315.69156
280.3  347.45293
280.2  329.84478
280.1  344.98241
280  316.75317

# Region:            O1s
# Acquisition Date:  10/31/19 01:46:16 UTC
# Analysis Method:   XPS
# Analyzer:          Phoibos
# Analyzer Lens:     MediumArea:1.5kV
# Analyzer Slit:     5:7x20\B:open
# Scan Mode:         FixedAnalyzerTransmission
# Curves/Scan:       1
# Values/Curve:      211
# Dwell Time:        0.1
# Excitation Energy: 1486.71
# Binding Energy:    542
# Pass Energy:       10
# Bias Voltage:      90
# Detector Voltage:  1900
# Eff. Workfunction: 4.395
# Source:            Focus
# Comment:           
#
# Cycle: 0
# Number of Scans: 10
#
# Cycle: 0, Curve: 0
# Acquisition Date: 10/31/19 01:46:16 UTC
#
# ColumnLabels: energy counts/s
#
542  490.32127
541.9  465.94887
541.8  463.11653
541.7  464.05631
541.6  445.38416
541.5  448.35475
541.4  451.79886
541.3  440.04606
541.2  491.34267
541.1  419.45879
541  467.00747
540.9  443.06854
540.8  463.39435
540.7  438.04566
540.6  461.11037
540.5  425.2794
540.4  443.45488
540.3  407.38823
540.2  433.45024
540.1  453.32208
540  414.88443
539.9  416.194
539.8  437.14213
539.7  426.00687
539.6  443.78333
539.5  443.00062
539.4  428.28314
539.3  426.82059
539.2  400.79844
539.1  431.18708
539  406.1253
538.9  423.13672
538.8  440.34919
538.7  443.4452
538.6  397.85114
538.5  394.90478
538.4  413.57125
538.3  431.0506
538.2  436.40685
538.1  406.82917
538  428.76641
537.9  422.88051
537.8  437.71913
537.7  400.1738
537.6  422.33382
537.5  429.56161
537.4  442.40649
537.3  414.63542
537.2  427.75861
537.1  438.81542
537  429.37008
536.9  468.93373
536.8  437.35942
536.7  437.8407
536.6  440.98175
536.5  443.8097
536.4  407.55498
536.3  441.85783
536.2  445.81056
536.1  442.34418
536  427.89536
535.9  441.70793
535.8  462.61088
535.7  445.76755
535.6  472.69003
535.5  495.63442
535.4  523.25234
535.3  571.04438
535.2  623.97837
535.1  652.32877
535  738.63884
534.9  856.28114
534.8  977.4214
534.7  1171.6773
534.6  1495.7634
534.5  1756.6543
534.4  2181.0126
534.3  2714.9467
534.2  3227.8634
534.1  3818.3964
534  4473.8111
533.9  4936.5287
533.8  5566.0701
533.7  6096.6037
533.6  6454.4928
533.5  6642.0485
533.4  6719.8591
533.3  6563.1404
533.2  6430.5204
533.1  6179.2967
533  5681.2941
532.9  5215.54
532.8  4665.5603
532.7  4196.4706
532.6  3697.9663
532.5  3093.7296
532.4  2677.9056
532.3  2235.2899
532.2  1822.9979
532.1  1565.0373
532  1289.0543
531.9  1105.2012
531.8  1030.5734
531.7  904.02582
531.6  751.95362
531.5  723.01599
531.4  661.13347
531.3  653.52619
531.2  576.80198
531.1  538.21629
531  545.99333
530.9  538.27572
530.8  498.45656
530.7  514.85918
530.6  511.15269
530.5  477.64662
530.4  450.81431
530.3  482.04412
530.2  457.5759
530.1  423.93172
530  455.18363
529.9  434.56838
529.8  447.55763
529.7  408.15497
529.6  419.27658
529.5  405.5073
529.4  384.01657
529.3  407.61712
529.2  401.54139
529.1  390.451
529  417.57306
528.9  399.2751
528.8  403.00934
528.7  409.36132
528.6  395.70873
528.5  386.80076
528.4  386.29063
528.3  377.53574
528.2  395.41875
528.1  392.82831
528  378.06845
527.9  399.75605
527.8  386.63777
527.7  402.89014
527.6  385.40495
527.5  388.47502
527.4  414.2903
527.3  389.27292
527.2  393.44099
527.1  376.90096
527  404.77884
526.9  391.01371
526.8  382.02307
526.7  392.16421
526.6  371.62124
526.5  399.37301
526.4  401.74554
526.3  378.33962
526.2  409.23268
526.1  411.23852
526  388.5942
525.9  369.81173
525.8  403.358
525.7  417.82803
525.6  397.1167
525.5  377.35992
525.4  379.42826
525.3  361.57619
525.2  414.47023
525.1  394.31619
525  403.4287
524.9  422.57991
524.8  401.53892
524.7  384.30922
524.6  382.20019
524.5  384.18696
524.4  372.95226
524.3  383.03403
524.2  377.58473
524.1  408.33117
524  395.92269
523.9  372.47035
523.8  386.65417
523.7  371.24256
523.6  356.80886
523.5  372.55223
523.4  379.01968
523.3  383.18908
523.2  404.83864
523.1  374.43738
523  385.3303
522.9  365.54783
522.8  378.54398
522.7  380.1189
522.6  381.3102
522.5  365.08608
522.4  375.19595
522.3  395.82473
522.2  390.79459
522.1  385.78486
522  402.03657
521.9  384.76463
521.8  381.27974
521.7  389.5462
521.6  355.14603
521.5  383.20053
521.4  401.80426
521.3  395.45412
521.2  415.99384
521.1  353.50017
521  362.82686

# Region:            Si2p
# Acquisition Date:  10/31/19 01:51:19 UTC
# Analysis Method:   XPS
# Analyzer:          Phoibos
# Analyzer Lens:     MediumArea:1.5kV
# Analyzer Slit:     5:7x20\B:open
# Scan Mode:         FixedAnalyzerTransmission
# Curves/Scan:       1
# Values/Curve:      161
# Dwell Time:        0.1
# Excitation Energy: 1486.71
# Binding Energy:    108
# Pass Energy:       10
# Bias Voltage:      90
# Detector Voltage:  1900
# Eff. Workfunction: 4.395
# Source:            Focus
# Comment:           
#
# Cycle: 0
# Number of Scans: 15
#
# Cycle: 0, Curve: 0
# Acquisition Date: 10/31/19 01:51:19 UTC
#
# ColumnLabels: energy counts/s
#
108  82.63428
107.9  72.458345
107.8  74.269268
107.7  66.947381
107.6  78.775204
107.5  83.18505
107.4  87.219823
107.3  79.701092
107.2  74.490975
107.1  75.445985
107  63.708131
106.9  81.083333
106.8  74.71569
106.7  74.330665
106.6  80.007999
106.5  80.746771
106.4  74.744548
106.3  75.508336
106.2  82.333508
106.1  98.812194
106  111.39748
105.9  104.7835
105.8  121.46262
105.7  154.60636
105.6  181.0296
105.5  207.25666
105.4  270.57443
105.3  340.19066
105.2  430.49974
105.1  514.46835
105  603.01492
104.9  728.57463
104.8  843.53808
104.7  941.51179
104.6  1032.3337
104.5  1090.1624
104.4  1152.6465
104.3  1259.4612
104.2  1277.1094
104.1  1247.6391
104  1221.5802
103.9  1216.9167
103.8  1183.1132
103.7  1074.4791
103.6  989.61606
103.5  878.32254
103.4  784.29997
103.3  773.47436
103.2  735.79062
103.1  701.8833
103  676.08068
102.9  634.24267
102.8  642.32511
102.7  630.24246
102.6  603.64138
102.5  564.44184
102.4  552.33774
102.3  492.9458
102.2  416.94976
102.1  335.0967
102  265.82379
101.9  217.95716
101.8  178.49482
101.7  138.4675
101.6  118.5452
101.5  107.68207
101.4  83.435759
101.3  90.332233
101.2  104.15619
101.1  76.042966
101  75.855619
100.9  80.321314
100.8  82.720453
100.7  68.893848
100.6  73.745075
100.5  85.40673
100.4  72.597962
100.3  60.70354
100.2  71.071512
100.1  68.053668
100  60.968747
99.9  88.518811
99.8  75.642095
99.7  77.439237
99.6  80.647196
99.5  73.727592
99.4  55.809207
99.3  72.225422
99.2  69.646864
99.1  64.201677
99  68.762325
98.9  77.618426
98.8  69.473043
98.7  79.448581
98.6  72.6226
98.5  69.068949
98.4  58.819572
98.3  67.77152
98.2  72.033407
98.1  72.404763
98  64.790979
97.9  77.442789
97.8  60.444947
97.7  71.897958
97.6  77.20497
97.5  69.10582
97.4  76.921957
97.3  73.401931
97.2  73.156972
97.1  74.011288
97  86.849292
96.9  68.840344
96.8  66.644895
96.7  62.428617
96.6  64.719552
96.5  74.230693
96.4  65.692352
96.3  67.779098
96.2  72.274181
96.1  76.073812
96  75.591515
95.9  66.675249
95.8  71.054903
95.7  69.416993
95.6  73.816831
95.5  68.376335
95.4  69.617792
95.3  61.386124
95.2  66.7334
95.1  74.568998
95  61.225211
94.9  72.572415
94.8  71.765584
94.7  71.460833
94.6  70.997671
94.5  69.427086
94.4  69.607813
94.3  54.949178
94.2  61.201838
94.1  67.186057
94  69.254091
93.9  74.995038
93.8  65.689343
93.7  73.218964
93.6  74.575299
93.5  69.819823
93.4  70.109392
93.3  54.66658
93.2  60.405197
93.1  72.821448
93  69.800453
92.9  79.556701
92.8  77.874481
92.7  73.619557
92.6  68.552845
92.5  75.53901
92.4  69.717541
92.3  65.587032
92.2  70.400396
92.1  69.299897
92  61.942556

# Group:             Spectrum Group 55
#
# Region:            C1s
# Acquisition Date:  10/31/19 01:57:55 UTC
# Analysis Method:   XPS
# Analyzer:          Phoibos
# Analyzer Lens:     MediumArea:1.5kV
# Analyzer Slit:     5:7x20\B:open
# Scan Mode:         FixedAnalyzerTransmission
# Curves/Scan:       1
# Values/Curve:      151
# Dwell Time:        0.1
# Excitation Energy: 1486.71
# Binding Energy:    295
# Pass Energy:       10
# Bias Voltage:      90
# Detector Voltage:  1900
# Eff. Workfunction: 4.395
# Source:            Focus
# Comment:           
#
# Cycle: 0
# Number of Scans: 10
#
# Cycle: 0, Curve: 0
# Acquisition Date: 10/31/19 01:57:55 UTC
#
# ColumnLabels: energy counts/s
#
295  237.59236
294.9  227.60931
294.8  244.45646
294.7  249.26409
294.6  229.99694
294.5  238.35762
294.4  265.40772
294.3  268.35008
294.2  251.72436
294.1  216.36243
294  247.85255
293.9  268.24994
293.8  251.59103
293.7  250.56283
293.6  259.36136
293.5  234.69825
293.4  220.7486
293.3  256.82805
293.2  242.51532
293.1  215.86939
293  210.85317
292.9  238.18182
292.8  213.7266
292.7  231.84799
292.6  244.00562
292.5  228.44943
292.4  215.00963
292.3  216.57052
292.2  236.73141
292.1  218.53819
292  199.0353
291.9  206.10829
291.8  217.83172
291.7  215.34974
291.6  204.03276
291.5  222.34594
291.4  244.70262
291.3  209.51195
291.2  230.30987
291.1  230.2558
291  224.40467
290.9  206.41388
290.8  218.7379
290.7  231.37115
290.6  217.80275
290.5  215.16913
290.4  213.20753
290.3  236.38391
290.2  243.29162
290.1  255.66088
290  253.23516
289.9  252.86194
289.8  267.94334
289.7  259.8327
289.6  268.28582
289.5  258.08436
289.4  278.21655
289.3  303.02559
289.2  266.85152
289.1  247.30958
289  282.91836
288.9  262.45521
288.8  253.14961
288.7  262.51633
288.6  297.29306
288.5  273.94517
288.4  266.59507
288.3  273.61574
288.2  257.92182
288.1  253.84399
288  270.0507
287.9  283.45564
287.8  310.53879
287.7  328.03494
287.6  344.15651
287.5  395.95953
287.4  341.76177
287.3  357.46906
287.2  383.7339
287.1  403.20876
287  431.79802
286.9  407.06064
286.8  433.35928
286.7  475.70506
286.6  478.28342
286.5  549.36669
286.4  642.36155
286.3  735.85631
286.2  865.00175
286.1  1008.9603
286  1178.4733
285.9  1391.7674
285.8  1612.9731
285.7  1765.9093
285.6  1975.6175
285.5  2018.7154
285.4  2068.7344
285.3  2103.7553
285.2  2048.7116
285.1  1792.2913
285  1590.0474
284.9  1367.7322
284.8  1146.1809
284.7  981.75734
284.6  748.28218
284.5  587.32481
284.4  480.68823
284.3  382.31901
284.2  329.04393
284.1  300.38814
284  259.96111
283.9  247.30983
283.8  249.99068
283.7  217.21954
283.6  219.79629
283.5  191.25286
283.4  193.42204
283.3  220.99661
283.2  232.24839
283.1  220.61358
283  227.56865
282.9  257.76431
282.8  214.73206
282.7  198.69811
282.6  219.12651
282.5  222.71986
282.4  225.97709
282.3  195.28329
282.2  209.59922
282.1  209.97009
282  210.79986
281.9  220.18555
281.8  213.79492
281.7  241.03422
281.6  217.89775
281.5  214.30946
281.4  200.00202
281.3  218.91191
281.2  224.28038
281.1  213.6768
281  207.08194
280.9  186.10701
280.8  182.24184
280.7  199.03474
280.6  201.63172
280.5  192.1881
280.4  199.61567
280.3  206.95853
280.2  207.19296
280.1  232.16311
280  226.44962

# Region:            O1s
# Acquisition Date:  10/31/19 02:02:15 UTC
# Analysis Method:   XPS
# Analyzer:          Phoibos
# Analyzer Lens:     MediumArea:1.5kV
# Analyzer Slit:     5:7x20\B:open
# Scan Mode:         FixedAnalyzerTransmission
# Curves/Scan:       1
# Values/Curve:      211
# Dwell Time:        0.1
# Excitation Energy: 1486.71
# Binding Energy:    542
# Pass Energy:       10
# Bias Voltage:      90
# Detector Voltage:  1900
# Eff. Workfunction: 4.395
# Source:            Focus
# Comment:           
#
# Cycle: 0
# Number of Scans: 10
#
# Cycle: 0, Curve: 0
# Acquisition Date: 10/31/19 02:02:15 UTC
#
# ColumnLabels: energy counts/s
#
542  321.84828
541.9  308.34773
541.8  331.49812
541.7  320.84948
541.6  329.29722
541.5  319.90692
541.4  354.53009
541.3  320.52938
541.2  291.77836
541.1  329.1259
541  326.31556
540.9  285.77071
540.8  281.18702
540.7  293.68271
540.6  285.73716
540.5  310.14794
540.4  306.57883
540.3  280.32106
540.2  312.58902
540.1  321.045
540  269.77234
539.9  293.00093
539.8  314.96722
539.7  312.99779
539.6  293.96164
539.5  307.51719
539.4  281.57551
539.3  291.46278
539.2  258.13906
539.1  258.31598
539  314.12764
538.9  284.12449
538.8  309.98634
538.7  311.97
538.6  288.94944
538.5  276.58767
538.4  291.42925
538.3  276.60732
538.2  317.18684
538.1  319.2702
538  288.19538
537.9  258.94233
537.8  257.64475
537.7  271.73843
537.6  317.10436
537.5  308.46247
537.4  266.11433
537.3  302.48032
537.2  329.34119
537.1  278.80452
537  309.11025
536.9  335.01174
536.8  310.29389
536.7  316.59265
536.6  292.40288
536.5  316.92098
536.4  295.84356
536.3  310.35373
536.2  287.87172
536.1  280.23177
536  300.72563
535.9  291.89193
535.8  300.8726
535.7  280.33511
535.6  297.63632
535.5  340.32632
535.4  345.82953
535.3  348.7425
535.2  340.49556
535.1  387.36373
535  479.19591
534.9  497.17691
534.8  607.31778
534.7  683.76141
534.6  793.97028
534.5  917.34994
534.4  1175.3871
534.3  1403.3917
534.2  1627.0425
534.1  1907.0226
534  2258.8588
533.9  2610.8904
533.8  2885.6971
533.7  3095.5512
533.6  3360.211
533.5  3538.7011
533.4  3678.204
533.3  3778.2451
533.2  3736.1658
533.1  3680.9847
533  3672.5412
532.9  3501.4432
532.8  3069.2919
532.7  2863.5991
532.6  2441.9728
532.5  2103.1485
532.4  1836.1692
532.3  1542.2457
532.2  1234.1224
532.1  1084.3446
532  959.34381
531.9  836.59645
531.8  699.62368
531.7  583.49301
531.6  548.29937
531.5  467.7164
531.4  423.51369
531.3  426.43524
531.2  417.65061
531.1  403.5642
531  384.71714
530.9  361.30189
530.8  318.07197
530.7  321.57437
530.6  309.14652
530.5  316.18217
530.4  306.19478
530.3  300.56158
530.2  290.62173
530.1  289.34794
530  277.55701
529.9  302.75183
529.8  287.52309
529.7  313.04478
529.6  273.44487
529.5  279.11886
529.4  280.29453
529.3  261.22553
529.2  249.05063
529.1  269.41201
529  285.35301
528.9  287.92623
528.8  250.16748
528.7  267.65329
528.6  260.20055
528.5  273.87203
528.4  278.74646
528.3  243.99108
528.2  275.08019
528.1  288.03629
528  292.28433
527.9  256.15272
527.8  257.32791
527.7  265.7297
527.6  264.00006
527.5  297.25548
527.4  261.15048
527.3  282.54421
527.2  288.30158
527.1  273.85975
527  270.22286
526.9  253.19939
526.8  238.87827
526.7  279.08509
526.6  260.12222
526.5  252.15144
526.4  246.70298
526.3  270.15481
526.2  261.81746
526.1  247.55575
526  250.86218
525.9  260.67753
525.8  271.4384
525.7  259.28617
525.6  254.7463
525.5  246.57024
525.4  251.81617
525.3  245.8662
525.2  238.80421
525.1  257.75687
525  261.19443
524.9  259.63429
524.8  261.09339
524.7  247.6694
524.6  244.23858
524.5  275.60026
524.4  260.02621
524.3  245.51241
524.2  262.20915
524.1  254.70298
524  267.55543
523.9  265.76
523.8  294.23533
523.7  259.37871
523.6  246.61032
523.5  267.43994
523.4  281.27767
523.3  271.7471
523.2  274.14566
523.1  243.31205
523  237.58265
522.9  239.62678
522.8  243.3242
522.7  255.43939
522.6  247.82585
522.5  246.01732
522.4  242.18878
522.3  278.43787
522.2  269.78481
522.1  246.874
522  231.78344
521.9  260.7746
521.8  255.03849
521.7  261.83493
521.6  260.3996
521.5  231.92328
521.4  271.99671
521.3  255.43028
521.2  271.15665
521.1  255.6389
521  250.58205

# Region:            Si2p
# Acquisition Date:  10/31/19 02:07:19 UTC
# Analysis Method:   XPS
# Analyzer:          Phoibos
# Analyzer Lens:     MediumArea:1.5kV
# Analyzer Slit:     5:7x20\B:open
# Scan Mode:         FixedAnalyzerTransmission
# Curves/Scan:       1
# Values/Curve:      161
# Dwell Time:        0.1
# Excitation Energy: 1486.71
# Binding Energy:    108
# Pass Energy:       10
# Bias Voltage:      90
# Detector Voltage:  1900
# Eff. Workfunction: 4.395
# Source:            Focus
# Comment:           
#
# Cycle: 0
# Number of Scans: 15
#
# Cycle: 0, Curve: 0
# Acquisition Date: 10/31/19 02:07:19 UTC
#
# ColumnLabels: energy counts/s
#
108  41.938168
107.9  43.50038
107.8  50.852346
107.7  46.250257
107.6  41.078072
107.5  41.735872
107.4  40.723439
107.3  45.784093
107.2  39.145682
107.1  46.893114
107  47.270429
106.9  49.896268
106.8  48.566193
106.7  48.526256
106.6  48.823395
106.5  44.765198
106.4  48.536162
106.3  51.829942
106.2  57.446768
106.1  59.444984
106  62.589675
105.9  73.964636
105.8  72.546353
105.7  86.280469
105.6  100.09817
105.5  106.81773
105.4  138.16649
105.3  170.27592
105.2  210.42983
105.1  229.0063
105  270.9508
104.9  323.77744
104.8  393.23431
104.7  433.66303
104.6  461.29496
104.5  552.15589
104.4  565.77144
104.3  591.06594
104.2  608.66962
104.1  581.9202
104  571.2546
103.9  587.63669
103.8  540.89951
103.7  537.34756
103.6  503.45859
103.5  511.9667
103.4  501.24068
103.3  474.45215
103.2  479.45698
103.1  426.19272
103  437.96876
102.9  438.80686
102.8  456.68731
102.7  478.57258
102.6  446.84323
102.5  397.60773
102.4  382.89856
102.3  310.75381
102.2  253.98032
102.1  236.34203
102  174.96163
101.9  134.49123
101.8  108.21489
101.7  79.619088
101.6  64.995315
101.5  55.980232
101.4  56.313298
101.3  56.080071
101.2  48.279757
101.1  53.619796
101  50.803679
100.9  45.224598
100.8  50.075835
100.7  40.364992
100.6  40.756391
100.5  49.899108
100.4  44.203093
100.3  45.704665
100.2  41.115384
100.1  53.951359
100  51.586879
99.9  48.563137
99.8  47.23431
99.7  50.196466
99.6  41.125993
99.5  55.406
99.4  47.634527
99.3  45.643089
99.2  43.317481
99.1  42.572171
99  46.029028
98.9  44.061651
98.8  45.584006
98.7  49.163257
98.6  43.457824
98.5  40.828958
98.4  37.547911
98.3  38.103529
98.2  42.122516
98.1  47.961693
98  46.23855
97.9  41.913706
97.8  43.714572
97.7  43.818689
97.6  45.397708
97.5  44.309606
97.4  38.85406
97.3  48.044212
97.2  55.771751
97.1  43.909877
97  31.812286
96.9  40.373648
96.8  44.086391
96.7  48.024793
96.6  42.271834
96.5  45.933898
96.4  38.648585
96.3  49.271005
96.2  50.278784
96.1  48.145441
96  44.75678
95.9  51.948481
95.8  41.686965
95.7  50.090907
95.6  50.989843
95.5  42.890563
95.4  46.097695
95.3  48.679379
95.2  48.636459
95.1  45.690616
95  45.937034
94.9  46.602475
94.8  49.437572
94.7  41.22484
94.6  38.201828
94.5  37.535078
94.4  44.579177
94.3  39.42833
94.2  46.988437
94.1  51.271719
94  44.101341
93.9  51.426419
93.8  47.591688
93.7  56.066515
93.6  50.574711
93.5  40.497619
93.4  45.403561
93.3  45.788477
93.2  48.476981
93.1  48.906133
93  44.076991
92.9  35.879145
92.8  45.697652
92.7  50.890884
92.6  49.809147
92.5  49.089395
92.4  43.130164
92.3  37.930573
92.2  40.926201
92.1  31.462909
92  44.489577

